0.003906250, -0.0349
0.007812500,  0.0604
0.011718750,  0.0516
0.015625000, -0.0061
0.019531250, -0.0498
0.023437500,  0.0268
0.027343750,  0.0927
0.031250000,  0.0410
0.035156250, -0.0290
0.039062500, -0.0195
0.042968750,  0.0632
0.046875000,  0.0885
0.050781250,  0.0214
0.054687500, -0.0640
0.058593750, -0.0012
0.062500000,  0.0729
0.066406250,  0.1245
0.070312500,  0.0623
0.074218750,  0.0548
0.078125000,  0.0750
0.082031250,  0.0947
0.085937500,  0.0236
0.089843750, -0.0916
0.093750000, -0.2770
0.097656250,  1.0595
0.101562500,  0.9770
0.105468750, -0.0111
0.109375000, -0.2912
0.113281250, -0.2424
0.117187500, -0.1804
0.121093750, -0.2182
0.125000000, -0.2507
0.128906250, -0.1971
0.132812500, -0.0976
0.136718750, -0.0630
0.140625000, -0.1359
0.144531250, -0.1278
0.148437500, -0.0200
0.152343750,  0.0626
0.156250000,  0.0215
0.160156250, -0.0092
0.164062500,  0.0052
0.167968750,  0.0247
0.171875000, -0.0382
0.175781250, -0.1130
0.179687500, -0.1609
0.183593750, -0.0995
0.187500000, -0.0258
0.191406250, -0.0592
0.195312500, -0.1107
0.199218750, -0.0883
0.203125000,  0.0010
0.207031250,  0.0235
0.210937500, -0.0438
0.214843750, -0.0614
0.218750000, -0.0134
0.222656250,  0.0615
0.226562500,  0.0550
0.230468750, -0.0422
0.234375000, -0.0232
0.238281250,  0.0575
0.242187500,  0.0741
0.246093750,  0.0229
0.250000000, -0.0386
0.253906250,  0.0049
0.257812500,  0.0363
0.261718750,  0.0979
0.265625000,  0.0670
0.269531250,  0.0465
0.273437500,  0.0775
0.277343750,  0.0811
0.281250000,  0.0314
0.285156250, -0.0312
0.289062500, -0.2733
0.292968750,  0.2609
0.296875000,  1.6330
0.300781250, -0.0329
0.304687500, -0.1690
0.308593750, -0.1990
0.312500000, -0.1314
0.316406250, -0.1352
0.320312500, -0.1747
0.324218750, -0.1295
0.328125000, -0.0312
0.332031250, -0.0231
0.335937500, -0.0773
0.339843750, -0.0656
0.343750000,  0.0230
0.347656250,  0.1199
0.351562500,  0.1142
0.355468750,  0.0594
0.359375000,  0.0568
0.363281250,  0.0379
0.367187500, -0.0258
0.371093750, -0.1738
0.375000000, -0.1953
0.378906250, -0.1750
0.382812500, -0.0828
0.386718750, -0.0894
0.390625000, -0.1413
0.394531250, -0.1416
0.398437500, -0.0371
0.402343750,  0.0028
0.406250000, -0.0257
0.410156250, -0.1092
0.414062500, -0.0436
0.417968750,  0.0312
0.421875000,  0.0258
0.425781250, -0.0420
0.429687500, -0.0371
0.433593750,  0.0155
0.437500000,  0.0435
0.441406250,  0.0610
0.445312500,  0.0344
0.449218750,  0.0391
0.453125000,  0.0780
0.457031250,  0.0923
0.460937500, -0.0028
0.464843750, -0.0341
0.468750000, -0.2437
0.472656250,  0.2820
0.476562500,  1.4259
0.480468750, -0.1303
0.484375000, -0.1785
0.488281250, -0.1434
0.492187500, -0.0851
0.496093750, -0.1439
0.500000000, -0.1491
0.503906250, -0.0758
0.507812500,  0.0170
0.511718750, -0.0005
0.515625000, -0.0171
0.519531250, -0.0153
0.523437500,  0.0985
0.527343750,  0.1845
0.531250000,  0.1198
0.535156250,  0.0511
0.539062500,  0.0769
0.542968750,  0.0863
0.546875000, -0.0558
0.550781250, -0.1605
0.554687500, -0.1626
0.558593750, -0.1064
0.562500000, -0.0576
0.566406250, -0.0677
0.570312500, -0.1531
0.574218750, -0.0910
0.578125000, -0.0161
0.582031250, -0.0207
0.585937500, -0.0743
0.589843750, -0.0944
0.593750000, -0.0356
0.597656250,  0.0220
0.601562500, -0.0168
0.605468750, -0.0931
0.609375000, -0.0488
0.613281250,  0.0371
0.617187500,  0.0053
0.621093750, -0.0461
0.625000000,  0.0029
0.628906250,  0.0754
0.632812500,  0.0836
0.636718750,  0.0212
0.640625000, -0.0385
0.644531250, -0.0528
0.648437500, -0.1030
0.652343750, -0.2285
0.656250000,  1.4158
0.660156250,  0.5384
0.664062500, -0.0540
0.667968750, -0.1625
0.671875000, -0.2212
0.675781250, -0.2766
0.679687500, -0.2396
0.683593750, -0.1552
0.687500000, -0.0823
0.691406250, -0.1300
0.695312500, -0.1613
0.699218750, -0.1036
0.703125000, -0.0030
0.707031250,  0.0087
0.710937500, -0.0417
0.714843750, -0.0626
0.718750000,  0.0340
0.722656250,  0.0469
0.726562500, -0.0228
0.730468750, -0.0943
0.734375000, -0.0910
0.738281250, -0.0100
0.742187500, -0.0127
0.746093750, -0.0637
0.750000000, -0.0855
0.753906250, -0.0190
0.757812500,  0.0475
0.761718750,  0.0230
0.765625000, -0.0518
0.769531250, -0.0299
0.773437500,  0.0612
0.777343750,  0.0600
0.781250000, -0.0149
0.785156250, -0.0339
0.789062500,  0.0425
0.792968750,  0.0898
0.796875000,  0.0444
0.800781250, -0.0698
0.804687500,  0.0187
0.808593750,  0.1384
0.812500000,  0.1466
0.816406250,  0.0248
0.820312500, -0.0402
0.824218750,  0.0119
0.828125000,  0.0722
0.832031250, -0.2396
0.835937500,  0.0358
0.839843750,  1.7999
0.843750000,  0.2970
0.847656250, -0.0950
0.851562500, -0.2517
0.855468750, -0.3036
0.859375000, -0.2198
0.863281250, -0.1351
0.867187500, -0.1265
0.871093750, -0.1406
0.875000000, -0.1907
0.878906250, -0.0741
0.882812500, -0.0066
0.886718750, -0.0291
0.890625000, -0.0668
0.894531250, -0.0139
0.898437500,  0.0753
0.902343750,  0.0611
0.906250000, -0.0335
0.910156250, -0.0941
0.914062500, -0.0497
0.917968750, -0.0111
0.921875000, -0.0490
0.925781250, -0.1137
0.929687500, -0.0893
0.933593750, -0.0084
0.937500000,  0.0241
0.941406250, -0.0327
0.945312500, -0.0548
0.949218750, -0.0041
0.953125000,  0.0660
0.957031250,  0.0314
0.960937500, -0.0353
0.964843750, -0.0365
0.968750000,  0.0589
0.972656250,  0.0933
0.976562500,  0.0005
0.980468750, -0.0621
0.984375000, -0.0062
0.988281250,  0.0726
0.992187500,  0.0410
0.996093750,  0.0434
1.000000000,  0.0391
1.003906250,  0.1127
1.007812500,  0.0939
1.011718750,  0.0386
1.015625000, -0.0376
1.019531250, -0.0413
1.023437500, -0.2349
1.027343750,  0.5541
1.031250000,  1.3128
1.035156250, -0.0082
1.039062500, -0.2197
1.042968750, -0.1915
1.046875000, -0.2290
1.050781250, -0.2672
1.054687500, -0.2163
1.058593750, -0.1167
1.062500000, -0.1017
1.066406250, -0.1636
1.070312500, -0.1523
1.074218750, -0.0657
1.078125000,  0.0194
1.082031250, -0.0027
1.085937500, -0.0530
1.089843750, -0.0396
1.093750000,  0.0388
1.097656250,  0.0309
1.101562500, -0.0615
1.105468750, -0.1473
1.109375000, -0.0855
1.113281250, -0.0312
1.117187500, -0.0563
1.121093750, -0.1004
1.125000000, -0.0944
1.128906250, -0.0023
1.132812500,  0.0284
1.136718750, -0.0299
1.140625000, -0.0779
1.144531250, -0.0203
1.148437500,  0.0426
1.152343750,  0.0353
1.156250000, -0.0382
1.160156250, -0.0444
1.164062500,  0.0307
1.167968750,  0.0633
1.171875000,  0.0184
1.175781250, -0.0297
1.179687500,  0.0076
1.183593750,  0.0635
1.187500000,  0.0513
1.191406250, -0.0329
1.195312500,  0.0264
1.199218750,  0.1126
1.203125000,  0.1380
1.207031250,  0.0606
1.210937500, -0.0109
1.214843750, -0.0104
1.218750000, -0.0019
1.222656250, -0.1969
1.226562500,  0.8480
1.230468750,  0.8100
1.234375000, -0.0760
1.238281250, -0.1583
1.242187500, -0.1885
1.246093750, -0.2152
1.250000000, -0.1841
1.253906250, -0.0761
1.257812500, -0.0684
1.261718750, -0.0942
1.265625000, -0.1179
1.269531250, -0.0389
1.273437500,  0.0399
1.277343750,  0.0748
1.281250000,  0.0085
1.285156250,  0.0385
1.289062500,  0.1049
1.292968750,  0.1099
1.296875000, -0.0150
1.300781250, -0.1336
1.304687500, -0.1218
1.308593750, -0.0909
1.312500000, -0.0755
1.316406250, -0.1256
1.320312500, -0.1107
1.324218750, -0.0495
1.328125000,  0.0174
1.332031250, -0.0378
1.335937500, -0.0779
1.339843750, -0.0329
1.343750000,  0.0114
1.347656250,  0.0280
1.351562500, -0.0431
1.355468750, -0.0675
1.359375000,  0.0046
1.363281250,  0.0669
1.367187500,  0.0232
1.371093750, -0.0301
1.375000000, -0.0340
1.378906250,  0.0414
1.382812500,  0.0534
1.386718750,  0.0651
1.390625000,  0.0412
1.394531250,  0.0676
1.398437500,  0.0859
1.402343750,  0.0397
1.406250000, -0.0222
1.410156250, -0.0838
1.414062500, -0.2014
1.417968750,  0.8611
1.421875000,  0.7020
1.425781250, -0.2238
1.429687500, -0.2198
1.433593750, -0.1167
1.437500000, -0.1294
1.441406250, -0.1469
1.445312500, -0.1393
1.449218750, -0.0613
1.453125000,  0.0116
1.457031250, -0.0190
1.460937500, -0.0672
1.464843750,  0.0053
1.468750000,  0.1076
1.472656250,  0.1140
1.476562500,  0.0672
1.480468750,  0.0503
1.484375000,  0.0688
1.488281250,  0.0214
1.492187500, -0.0911
1.496093750, -0.1945
1.500000000, -0.1728
1.503906250, -0.0781
1.507812500, -0.0869
1.511718750, -0.1363
1.515625000, -0.1505
1.519531250, -0.0609
1.523437500,  0.0031
1.527343750, -0.0225
1.531250000, -0.1000
1.535156250, -0.0936
1.539062500,  0.0134
1.542968750,  0.0161
1.546875000, -0.0294
1.550781250, -0.0981
1.554687500, -0.0226
1.558593750,  0.0527
1.562500000,  0.0139
1.566406250, -0.0500
1.570312500, -0.0536
1.574218750,  0.1086
1.578125000,  0.1152
1.582031250,  0.0343
1.585937500, -0.0417
1.589843750,  0.0082
1.593750000,  0.0666
1.597656250, -0.1502
1.601562500, -0.2273
1.605468750,  1.4508
1.609375000,  0.2573
1.613281250, -0.0362
1.617187500, -0.2098
1.621093750, -0.2255
1.625000000, -0.1867
1.628906250, -0.0693
1.632812500, -0.0578
1.636718750, -0.1077
1.640625000, -0.0881
1.644531250, -0.0170
1.648437500,  0.0588
1.652343750,  0.0345
1.656250000,  0.0090
1.660156250,  0.0537
1.664062500,  0.1446
1.667968750,  0.1208
1.671875000, -0.0077
1.675781250, -0.1212
1.679687500, -0.0916
1.683593750, -0.0627
1.687500000, -0.0983
1.691406250, -0.1553
1.695312500, -0.1494
1.699218750, -0.0258
1.703125000, -0.0025
1.707031250, -0.0497
1.710937500, -0.0938
1.714843750, -0.0305
1.718750000,  0.0107
1.722656250,  0.0152
1.726562500, -0.0719
1.730468750, -0.0526
1.734375000,  0.0283
1.738281250,  0.0481
1.742187500,  0.0045
1.746093750, -0.0669
1.750000000, -0.0099
1.753906250,  0.0658
1.757812500,  0.0026
1.761718750, -0.0204
1.765625000,  0.0103
1.769531250,  0.1015
1.773437500,  0.1269
1.777343750,  0.0273
1.781250000, -0.0442
1.785156250, -0.0028
1.789062500, -0.0777
1.792968750, -0.2020
1.796875000,  1.4572
1.800781250,  0.4928
1.804687500, -0.0097
1.808593750, -0.1449
1.812500000, -0.2071
1.816406250, -0.2467
1.820312500, -0.2218
1.824218750, -0.1229
1.828125000, -0.0865
1.832031250, -0.1383
1.835937500, -0.1713
1.839843750, -0.0770
1.843750000, -0.0142
1.847656250, -0.0352
1.851562500, -0.0510
1.855468750, -0.0502
1.859375000,  0.0207
1.863281250,  0.0348
1.867187500, -0.0622
1.871093750, -0.1135
1.875000000, -0.0681
1.878906250, -0.0187
1.882812500, -0.0315
1.886718750, -0.1236
1.890625000, -0.0879
1.894531250, -0.0022
1.898437500,  0.0308
1.902343750, -0.0006
1.906250000, -0.0481
1.910156250, -0.0112
1.914062500,  0.0435
1.917968750,  0.0419
1.921875000, -0.0280
1.925781250, -0.0325
1.929687500,  0.0587
1.933593750,  0.0727
1.937500000,  0.0236
1.941406250, -0.0430
1.945312500, -0.0150
1.949218750,  0.0501
1.953125000,  0.0605
1.957031250,  0.0497
1.960937500,  0.0371
1.964843750,  0.0791
1.968750000,  0.1089
1.972656250,  0.0357
1.976562500, -0.0312
1.980468750, -0.0667
1.984375000, -0.2250
1.988281250,  0.8530
1.992187500,  1.0277
1.996093750, -0.0572
2.000000000, -0.2253
2.003906250, -0.2112
2.007812500, -0.2050
2.011718750, -0.2538
2.015625000, -0.2239
2.019531250, -0.1122
2.023437500, -0.0788
2.027343750, -0.1105
2.031250000, -0.1690
2.035156250, -0.0782
2.039062500,  0.0123
2.042968750,  0.0123
2.046875000, -0.0784
2.050781250, -0.0795
2.054687500,  0.0142
2.058593750,  0.0454
2.062500000, -0.0353
2.066406250, -0.1234
2.070312500, -0.0995
2.074218750, -0.0167
2.078125000, -0.0136
2.082031250, -0.0711
2.085937500, -0.1113
2.089843750, -0.0191
2.093750000,  0.0577
2.097656250,  0.0007
2.101562500, -0.0528
2.105468750, -0.0455
2.109375000,  0.0432
2.113281250,  0.0681
2.117187500, -0.0006
2.121093750, -0.0487
2.125000000,  0.0110
2.128906250,  0.0834
2.132812500,  0.0498
2.136718750, -0.0222
2.140625000, -0.0078
2.144531250,  0.0301
2.148437500,  0.0792
2.152343750,  0.0707
2.156250000,  0.0289
2.160156250,  0.0455
2.164062500,  0.0878
2.167968750,  0.0724
2.171875000, -0.0272
2.175781250, -0.2649
2.179687500, -0.0542
2.183593750,  1.9227
2.187500000,  0.3333
2.191406250, -0.1012
2.195312500, -0.2819
2.199218750, -0.1921
2.203125000, -0.1749
2.207031250, -0.2185
2.210937500, -0.2221
2.214843750, -0.1244
2.218750000, -0.0652
2.222656250, -0.0946
2.226562500, -0.1445
2.230468750, -0.0692
2.234375000,  0.0039
2.238281250,  0.0217
2.242187500, -0.0592
2.246093750, -0.0692
2.250000000, -0.0195
2.253906250,  0.0139
2.257812500, -0.0530
2.261718750, -0.1236
2.265625000, -0.1109
2.269531250, -0.0153
2.273437500,  0.0038
2.277343750, -0.0624
2.281250000, -0.1171
2.285156250, -0.0284
2.289062500,  0.0488
2.292968750,  0.0208
2.296875000, -0.0486
2.300781250, -0.0348
2.304687500,  0.0428
2.308593750,  0.0663
2.312500000, -0.0167
2.316406250, -0.0545
2.320312500,  0.0060
2.324218750,  0.0580
2.328125000,  0.0568
2.332031250, -0.0291
2.335937500, -0.0559
2.339843750,  0.0699
2.343750000,  0.1458
2.347656250,  0.0892
2.351562500, -0.0180
2.355468750,  0.0169
2.359375000,  0.0636
2.363281250,  0.0356
2.367187500, -0.3069
2.371093750,  0.1855
2.375000000,  1.5634
2.378906250,  0.0932
2.382812500, -0.1092
2.386718750, -0.2681
2.390625000, -0.1987
2.394531250, -0.1329
2.398437500, -0.0860
2.402343750, -0.1584
2.406250000, -0.1506
2.410156250, -0.0665
2.414062500,  0.0110
2.417968750,  0.0000
2.421875000, -0.0379
2.425781250,  0.0072
2.429687500,  0.1083
2.433593750,  0.1058
2.437500000,  0.0120
2.441406250, -0.0691
2.445312500, -0.0606
2.449218750, -0.0689
2.453125000, -0.1093
2.457031250, -0.1653
2.460937500, -0.1361
2.464843750, -0.0449
2.468750000,  0.0020
2.472656250, -0.0686
2.476562500, -0.0962
2.480468750, -0.0560
2.484375000,  0.0193
2.488281250,  0.0129
2.492187500, -0.0568
2.496093750, -0.0744
2.500000000,  0.0052
2.503906250,  0.0480
2.507812500, -0.0043
2.511718750, -0.0554
2.515625000, -0.0336
2.519531250,  0.0439
2.523437500,  0.1032
2.527343750,  0.0366
2.531250000, -0.0140
2.535156250,  0.0394
2.539062500,  0.0792
2.542968750,  0.0238
2.546875000, -0.1977
2.550781250, -0.2189
2.554687500,  1.5030
2.558593750,  0.2484
2.562500000, -0.1312
2.566406250, -0.2230
2.570312500, -0.1406
2.574218750, -0.0669
2.578125000, -0.0718
2.582031250, -0.1257
2.585937500, -0.0830
2.589843750,  0.0162
2.593750000,  0.0534
2.597656250,  0.0110
2.601562500, -0.0143
2.605468750,  0.0671
2.609375000,  0.1641
2.613281250,  0.1260
2.617187500,  0.0421
2.621093750, -0.0382
2.625000000, -0.0472
2.628906250, -0.0507
2.632812500, -0.1123
2.636718750, -0.1904
2.640625000, -0.1557
2.644531250, -0.0534
2.648437500, -0.0474
2.652343750, -0.0989
2.656250000, -0.1040
2.660156250, -0.0118
2.664062500,  0.0190
2.667968750, -0.0187
2.671875000, -0.1057
2.675781250, -0.0464
2.679687500,  0.0318
2.683593750,  0.0325
2.687500000, -0.0443
2.691406250, -0.0522
2.695312500, -0.0020
2.699218750,  0.0320
2.703125000,  0.0084
2.707031250,  0.0222
2.710937500,  0.0688
2.714843750,  0.1173
2.718750000,  0.0949
2.722656250,  0.0048
2.726562500, -0.0318
2.730468750, -0.0058
2.734375000, -0.1959
2.738281250,  0.5515
2.742187500,  1.1672
2.746093750, -0.0598
2.750000000, -0.1622
2.753906250, -0.1591
2.757812500, -0.2092
2.761718750, -0.2387
2.765625000, -0.1675
2.769531250, -0.0893
2.773437500, -0.0908
2.777343750, -0.1232
2.781250000, -0.1243
2.785156250, -0.0167
2.789062500,  0.0422
2.792968750, -0.0268
2.796875000, -0.0640
2.800781250, -0.0253
2.804687500,  0.0364
2.808593750,  0.0049
2.812500000, -0.0919
2.816406250, -0.1461
2.820312500, -0.0628
2.824218750, -0.0232
2.828125000, -0.0685
2.832031250, -0.1055
2.835937500, -0.0524
2.839843750, -0.0009
2.843750000,  0.0327
2.847656250, -0.0482
2.851562500, -0.0682
2.855468750,  0.0017
2.859375000,  0.0436
2.863281250,  0.0127
2.867187500, -0.0608
2.871093750, -0.0328
2.875000000,  0.0631
2.878906250,  0.0635
2.882812500, -0.0172
2.886718750, -0.0618
2.890625000, -0.0307
2.894531250,  0.1011
2.898437500,  0.1098
2.902343750,  0.0552
2.906250000, -0.0023
2.910156250,  0.0608
2.914062500,  0.0640
2.917968750,  0.0051
2.921875000, -0.3250
2.925781250,  0.0942
2.929687500,  1.7784
2.933593750,  0.2270
2.937500000, -0.1790
2.941406250, -0.3005
2.945312500, -0.1965
2.949218750, -0.1375
2.953125000, -0.1719
2.957031250, -0.2045
2.960937500, -0.1351
2.964843750, -0.0397
2.968750000, -0.0421
2.972656250, -0.0853
2.976562500, -0.0735
2.980468750,  0.0138
2.984375000,  0.0675
2.988281250,  0.0148
2.992187500, -0.0599
2.996093750, -0.0501
3.000000000, -0.0163
3.003906250, -0.0132
3.007812500, -0.1042
3.011718750, -0.1189
3.015625000, -0.0688
3.019531250,  0.0242
3.023437500, -0.0212
3.027343750, -0.0554
3.031250000, -0.0292
3.035156250,  0.0628
3.039062500,  0.0346
3.042968750, -0.0183
3.046875000, -0.0424
3.050781250,  0.0053
3.054687500,  0.0738
3.058593750,  0.0485
3.062500000, -0.0351
3.066406250,  0.0026
3.070312500,  0.0567
3.074218750,  0.0756
3.078125000,  0.0197
3.082031250, -0.0195
3.085937500, -0.0134
3.089843750,  0.0793
3.093750000,  0.1232
3.097656250,  0.0853
3.101562500,  0.0069
3.105468750,  0.0667
3.109375000,  0.0859
3.113281250,  0.0259
3.117187500, -0.1436
3.121093750, -0.3002
3.125000000,  1.3231
3.128906250,  0.7681
3.132812500, -0.0215
3.136718750, -0.2647
3.140625000, -0.2319
3.144531250, -0.1695
3.148437500, -0.1919
3.152343750, -0.2444
3.156250000, -0.1692
3.160156250, -0.0840
3.164062500, -0.0542
3.167968750, -0.1206
3.171875000, -0.1077
3.175781250, -0.0233
3.179687500,  0.0615
3.183593750,  0.0000
3.187500000, -0.0527
3.191406250, -0.0569
3.195312500, -0.0046
3.199218750, -0.0130
3.203125000, -0.1037
3.207031250, -0.1502
3.210937500, -0.1027
3.214843750, -0.0199
3.218750000, -0.0200
3.222656250, -0.0830
3.226562500, -0.0612
3.230468750,  0.0048
3.234375000,  0.0248
3.238281250, -0.0191
3.242187500, -0.0939
3.246093750, -0.0051
3.250000000,  0.0507
3.253906250,  0.0220
3.257812500, -0.0402
3.261718750, -0.0295
3.265625000,  0.0371
3.269531250,  0.0679
3.273437500,  0.0263
3.277343750, -0.0284
3.281250000,  0.0200
3.285156250,  0.0376
3.289062500,  0.0791
3.292968750,  0.0298
3.296875000,  0.0409
3.300781250,  0.0548
3.304687500,  0.0951
3.308593750,  0.0436
3.312500000, -0.0219
3.316406250, -0.2629
3.320312500, -0.0617
3.324218750,  1.7818
3.328125000,  0.1912
3.332031250, -0.1270
3.335937500, -0.2041
3.339843750, -0.1433
3.343750000, -0.1468
3.347656250, -0.1936
3.351562500, -0.1680
3.355468750, -0.0522
3.359375000, -0.0370
3.363281250, -0.0693
3.367187500, -0.0783
3.371093750,  0.0087
3.375000000,  0.0903
3.378906250,  0.0994
3.382812500,  0.0141
3.386718750,  0.0289
3.390625000,  0.0193
3.394531250,  0.0037
3.398437500, -0.1134
3.402343750, -0.1891
3.406250000, -0.1437
3.410156250, -0.0611
3.414062500, -0.0643
3.417968750, -0.0937
3.421875000, -0.1246
3.425781250, -0.0265
3.429687500,  0.0134
3.433593750, -0.0284
3.437500000, -0.0608
3.441406250, -0.0625
3.445312500,  0.0311
3.449218750,  0.0295
3.453125000, -0.0542
3.457031250, -0.0650
3.460937500,  0.0126
3.464843750,  0.0778
3.468750000,  0.0202
3.472656250, -0.0747
3.476562500, -0.0135
3.480468750,  0.1073
3.484375000,  0.1249
3.488281250,  0.0181
3.492187500, -0.0367
3.496093750,  0.0060
3.500000000,  0.0659
3.503906250, -0.1583
3.507812500, -0.2154
3.511718750,  1.4859
3.515625000,  0.1773
3.519531250, -0.0756
3.523437500, -0.1850
3.527343750, -0.1990
3.531250000, -0.0978
3.535156250, -0.0223
3.539062500, -0.0588
3.542968750, -0.0810
3.546875000, -0.0678
3.550781250,  0.0246
3.554687500,  0.0995
3.558593750,  0.0541
3.562500000,  0.0372
3.566406250,  0.0917
3.570312500,  0.1746
3.574218750,  0.1462
3.578125000, -0.0044
3.582031250, -0.1205
3.585937500, -0.0789
3.589843750, -0.0696
3.593750000, -0.1243
3.597656250, -0.1617
3.601562500, -0.1236
3.605468750, -0.0328
3.609375000, -0.0116
3.613281250, -0.0894
3.617187500, -0.1020
3.621093750, -0.0367
3.625000000,  0.0304
3.628906250, -0.0279
3.632812500, -0.0884
3.636718750, -0.0718
3.640625000,  0.0073
3.644531250,  0.0325
3.648437500, -0.0531
3.652343750, -0.0548
3.656250000, -0.0161
3.660156250,  0.0468
3.664062500,  0.0062
3.667968750,  0.0379
3.671875000,  0.0389
3.675781250,  0.1031
3.679687500,  0.0729
3.683593750, -0.0019
3.687500000, -0.0595
3.691406250, -0.0601
3.695312500, -0.1874
3.699218750,  0.7570
3.703125000,  0.9229
3.707031250, -0.1085
3.710937500, -0.1960
3.714843750, -0.1473
3.718750000, -0.1832
3.722656250, -0.2287
3.726562500, -0.1630
3.730468750, -0.0769
3.734375000, -0.0640
3.738281250, -0.1078
3.742187500, -0.1124
3.746093750,  0.0142
3.750000000,  0.0633
3.753906250,  0.0123
3.757812500, -0.0309
3.761718750,  0.0119
3.765625000,  0.0252
3.769531250, -0.0016
3.773437500, -0.1107
3.777343750, -0.1354
3.781250000, -0.0871
3.785156250, -0.0223
3.789062500, -0.0696
3.792968750, -0.1082
3.796875000, -0.0863
3.800781250, -0.0016
3.804687500,  0.0206
3.808593750, -0.0499
3.812500000, -0.0609
3.816406250, -0.0129
3.820312500,  0.0338
3.824218750,  0.0111
3.828125000, -0.0478
3.832031250, -0.0381
3.835937500,  0.0216
3.839843750,  0.0518
3.843750000, -0.0082
3.847656250, -0.0628
3.851562500, -0.0519
3.855468750,  0.0956
3.859375000,  0.1007
3.863281250,  0.0277
3.867187500,  0.0066
3.871093750,  0.0565
3.875000000,  0.0701
3.878906250, -0.0078
3.882812500, -0.3358
3.886718750,  0.1628
3.890625000,  1.7266
3.894531250,  0.1985
3.898437500, -0.1937
3.902343750, -0.3029
3.906250000, -0.2104
3.910156250, -0.1597
3.914062500, -0.1517
3.917968750, -0.2345
3.921875000, -0.1582
3.925781250, -0.0674
3.929687500, -0.0518
3.933593750, -0.1100
3.937500000, -0.0810
3.941406250, -0.0014
3.945312500,  0.0604
3.949218750,  0.0123
3.953125000, -0.0586
3.957031250, -0.0539
3.960937500, -0.0139
3.964843750, -0.0100
3.968750000, -0.0820
3.972656250, -0.0958
3.976562500, -0.0605
3.980468750,  0.0367
3.984375000,  0.0007
3.988281250, -0.0685
3.992187500, -0.0419
3.996093750,  0.0435
4.000000000,  0.0639
4.003906250,  0.0139
4.007812500, -0.0506
4.011718750,  0.0186
4.015625000,  0.0900
4.019531250,  0.0546
4.023437500,  0.0002
4.027343750,  0.0113
4.031250000,  0.0635
4.035156250,  0.0801
4.039062500,  0.0143
4.042968750, -0.0555
4.046875000,  0.0861
4.050781250,  0.1449
4.054687500,  0.1124
4.058593750, -0.0138
4.062500000, -0.0200
4.066406250,  0.0478
4.070312500,  0.0541
4.074218750, -0.2556
4.078125000,  0.6013
4.082031250,  1.1563
4.085937500,  0.0666
4.089843750, -0.1634
4.093750000, -0.2891
4.097656250, -0.2664
4.101562500, -0.1794
4.105468750, -0.1144
4.109375000, -0.1456
4.113281250, -0.1565
4.117187500, -0.1308
4.121093750, -0.0413
4.125000000, -0.0129
4.128906250, -0.0445
4.132812500, -0.0773
4.136718750, -0.0113
4.140625000,  0.0634
4.144531250,  0.0032
4.148437500, -0.0646
4.152343750, -0.1009
4.156250000, -0.0396
4.160156250, -0.0243
4.164062500, -0.0805
4.167968750, -0.1223
4.171875000, -0.0472
4.175781250,  0.0002
4.179687500, -0.0087
4.183593750, -0.0577
4.187500000, -0.0668
4.191406250,  0.0177
4.195312500,  0.0512
4.199218750, -0.0017
4.203125000, -0.0743
4.207031250, -0.0216
4.210937500,  0.0501
4.214843750,  0.0217
4.218750000, -0.0218
4.222656250, -0.0474
4.226562500,  0.0194
4.230468750,  0.0664
4.234375000, -0.0149
4.238281250,  0.0440
4.242187500,  0.0744
4.246093750,  0.0844
4.250000000,  0.0889
4.253906250, -0.0147
4.257812500, -0.0428
4.261718750, -0.0350
4.265625000, -0.1969
4.269531250,  0.7445
4.273437500,  0.8043
4.277343750, -0.1527
4.281250000, -0.1709
4.285156250, -0.1254
4.289062500, -0.1866
4.292968750, -0.1949
4.296875000, -0.1368
4.300781250, -0.0359
4.304687500, -0.0354
4.308593750, -0.0719
4.312500000, -0.0607
4.316406250,  0.0422
4.320312500,  0.1150
4.324218750,  0.0565
4.328125000,  0.0139
4.332031250,  0.0563
4.335937500,  0.1025
4.339843750, -0.0010
4.343750000, -0.0597
4.347656250, -0.1837
4.351562500, -0.1252
4.355468750, -0.0791
4.359375000, -0.0682
4.363281250, -0.2181
4.367187500, -0.1076
4.371093750, -0.0778
4.375000000, -0.0860
4.378906250, -0.1876
4.382812500, -0.1319
4.386718750,  0.0132
4.390625000,  0.1330
4.394531250,  0.0985
4.398437500,  0.0980
4.402343750,  0.0466
4.406250000,  0.0633
4.410156250,  0.0377
4.414062500, -0.0832
4.417968750, -0.0486
4.421875000, -0.0578
4.425781250,  0.0039
4.429687500,  0.0438
4.433593750,  0.0385
4.437500000, -0.0186
4.441406250, -0.2983
4.445312500, -0.1845
4.449218750,  1.5106
4.453125000, -0.0158
4.457031250, -0.1593
4.460937500, -0.2128
4.464843750, -0.1438
4.468750000, -0.1704
4.472656250, -0.0409
4.476562500, -0.0159
4.480468750,  0.0332
4.484375000,  0.0266
4.488281250,  0.0206
4.492187500,  0.1193
4.496093750,  0.1352
4.500000000,  0.1457
4.503906250,  0.1108
4.507812500,  0.1019
4.511718750,  0.0949
4.515625000,  0.0979
4.519531250,  0.0697
4.523437500, -0.0628
4.527343750, -0.0294
4.531250000,  0.0386
4.535156250, -0.0087
4.539062500,  0.0108
4.542968750,  0.0082
4.546875000,  0.0319
4.550781250,  0.0793
4.554687500, -0.0177
4.558593750, -0.0838
4.562500000, -0.0546
4.566406250,  0.0665
4.570312500,  0.0093
4.574218750, -0.0443
4.578125000, -0.1421
4.582031250, -0.0341
4.585937500, -0.0512
4.589843750, -0.1060
4.593750000, -0.1199
4.597656250, -0.0683
4.601562500,  0.0046
4.605468750, -0.0240
4.609375000, -0.0496
4.613281250, -0.0946
4.617187500, -0.1492
4.621093750, -0.3100
4.625000000,  1.1308
4.628906250,  0.6650
4.632812500, -0.1029
4.636718750, -0.2394
4.640625000, -0.2627
4.644531250, -0.2926
4.648437500, -0.3177
4.652343750, -0.2935
4.656250000, -0.2062
4.660156250, -0.2273
4.664062500, -0.2290
4.667968750, -0.2432
4.671875000, -0.1530
4.675781250, -0.0614
4.679687500, -0.0704
4.683593750, -0.1142
4.687500000, -0.0843
4.691406250,  0.0016
4.695312500, -0.0116
4.699218750, -0.0804
4.703125000, -0.0825
4.707031250, -0.0015
4.710937500,  0.0702
4.714843750,  0.0520
4.718750000, -0.0146
4.722656250,  0.0237
4.726562500,  0.0970
4.730468750,  0.1164
4.734375000,  0.0615
4.738281250,  0.0363
4.742187500,  0.0934
4.746093750,  0.1501
4.750000000,  0.0991
4.753906250,  0.0659
4.757812500,  0.0620
4.761718750,  0.1143
4.765625000,  0.0924
4.769531250,  0.0603
4.773437500,  0.0667
4.777343750,  0.1280
4.781250000,  0.1291
4.785156250,  0.0976
4.789062500,  0.0095
4.792968750, -0.0051
4.796875000, -0.1226
4.800781250, -0.2440
4.804687500,  1.5320
4.808593750,  0.5843
4.812500000,  0.0153
4.816406250, -0.1863
4.820312500, -0.2065
4.824218750, -0.2428
4.828125000, -0.2276
4.832031250, -0.1404
4.835937500, -0.0911
4.839843750, -0.0974
4.843750000, -0.1208
4.847656250, -0.0570
4.851562500,  0.0265
4.855468750,  0.0249
4.859375000, -0.0168
4.863281250, -0.0406
4.867187500, -0.0031
4.871093750,  0.0501
4.875000000, -0.0230
4.878906250, -0.1286
4.882812500, -0.1255
4.886718750, -0.0625
4.890625000, -0.0368
4.894531250, -0.0728
4.898437500, -0.0999
4.902343750, -0.0504
4.906250000,  0.0067
4.910156250, -0.0056
4.914062500, -0.0742
4.917968750, -0.0622
4.921875000,  0.0069
4.925781250,  0.0396
4.929687500, -0.0174
4.933593750, -0.0552
4.937500000, -0.0290
4.941406250,  0.0364
4.945312500, -0.0042
4.949218750, -0.0653
4.953125000,  0.0165
4.957031250,  0.1209
4.960937500,  0.0842
4.964843750,  0.0223
4.968750000, -0.0310
4.972656250,  0.0062
4.976562500, -0.0677
4.980468750, -0.2557
4.984375000,  1.1551
4.988281250,  0.6510
4.992187500,  0.0416
4.996093750, -0.1652
5.000000000, -0.1974
5.003906250, -0.2558
5.007812500, -0.1980
5.011718750, -0.1234
5.015625000, -0.0908
5.019531250, -0.1170
5.023437500, -0.1088
5.027343750, -0.0417
5.031250000,  0.0468
5.035156250,  0.0317
5.039062500, -0.0003
5.042968750,  0.0084
5.046875000,  0.0882
5.050781250,  0.0624
5.054687500, -0.0685
5.058593750, -0.1510
5.062500000, -0.1291
5.066406250, -0.0752
5.070312500, -0.0836
5.074218750, -0.1303
5.078125000, -0.1126
5.082031250, -0.0339
5.085937500,  0.0008
5.089843750, -0.0373
5.093750000, -0.0767
5.097656250, -0.0436
5.101562500,  0.0285
5.105468750,  0.0207
5.109375000, -0.0402
5.113281250, -0.0541
5.117187500, -0.0146
5.121093750,  0.1203
5.125000000,  0.0728
5.128906250,  0.0144
5.132812500,  0.0101
5.136718750,  0.0614
5.140625000,  0.0486
5.144531250, -0.0167
5.148437500, -0.2999
5.152343750,  0.0167
5.156250000,  1.6363
5.160156250,  0.1884
5.164062500, -0.1059
5.167968750, -0.1976
5.171875000, -0.1256
5.175781250, -0.1120
5.179687500, -0.1448
5.183593750, -0.1312
5.187500000, -0.0548
5.191406250,  0.0301
5.195312500,  0.0123
5.199218750, -0.0136
5.203125000,  0.0533
5.207031250,  0.1445
5.210937500,  0.1779
5.214843750,  0.1290
5.218750000,  0.0633
5.222656250,  0.0166
5.226562500, -0.0177
5.230468750, -0.1029
5.234375000, -0.1741
5.238281250, -0.1719
5.242187500, -0.0871
5.246093750, -0.0492
5.250000000, -0.0807
5.253906250, -0.1026
5.257812500, -0.0520
5.261718750,  0.0197
5.265625000, -0.0005
5.269531250, -0.0621
5.273437500, -0.0683
5.277343750, -0.0068
5.281250000, -0.0089
5.285156250,  0.0065
5.289062500,  0.0169
5.292968750,  0.0453
5.296875000,  0.0848
5.300781250,  0.0499
5.304687500, -0.0248
5.308593750, -0.0386
5.312500000, -0.1233
5.316406250, -0.2111
5.320312500,  1.3783
5.324218750,  0.5087
5.328125000, -0.0455
5.332031250, -0.1755
5.335937500, -0.1550
5.339843750, -0.2036
5.343750000, -0.2036
5.347656250, -0.1130
5.351562500, -0.0506
5.355468750, -0.0628
5.359375000, -0.0909
5.363281250, -0.0645
5.367187500,  0.0331
5.371093750,  0.0663
5.375000000,  0.0141
5.378906250, -0.0069
5.382812500,  0.0167
5.386718750,  0.0393
5.390625000, -0.0392
5.394531250, -0.1207
5.398437500, -0.1358
5.402343750, -0.0643
5.406250000, -0.0296
5.410156250, -0.0699
5.414062500, -0.0989
5.417968750, -0.0486
5.421875000,  0.0196
5.425781250,  0.0062
5.429687500, -0.0569
5.433593750, -0.0485
5.437500000,  0.0133
5.441406250,  0.0370
5.445312500, -0.0092
5.449218750, -0.0723
5.453125000, -0.0484
5.457031250,  0.0079
5.460937500,  0.0974
5.464843750,  0.0407
5.468750000,  0.0043
5.472656250,  0.0132
5.476562500,  0.0643
5.480468750,  0.0023
5.484375000, -0.0781
5.488281250, -0.3505
5.492187500,  0.5118
5.496093750,  1.4432
5.500000000,  0.1362
5.503906250, -0.2460
5.507812500, -0.2703
5.511718750, -0.2148
5.515625000, -0.2274
5.519531250, -0.2499
5.523437500, -0.2041
5.527343750, -0.1274
5.531250000, -0.0930
5.535156250, -0.1236
5.539062500, -0.1305
5.542968750, -0.0674
5.546875000,  0.0060
5.550781250, -0.0097
5.554687500, -0.0622
5.558593750, -0.0409
5.562500000,  0.0098
5.566406250,  0.0082
5.570312500, -0.0590
5.574218750, -0.0979
5.578125000, -0.0698
5.582031250, -0.0038
5.585937500, -0.0033
5.589843750, -0.0514
5.593750000, -0.0537
5.597656250,  0.0286
5.601562500,  0.0586
5.605468750,  0.0260
5.609375000, -0.0391
5.613281250,  0.0077
5.617187500,  0.0623
5.621093750,  0.0604
5.625000000, -0.0115
5.628906250, -0.0330
5.632812500, -0.0073
5.636718750,  0.1368
5.640625000,  0.1014
5.644531250,  0.0533
5.648437500,  0.0015
5.652343750,  0.0602
5.656250000,  0.0587
5.660156250, -0.0131
5.664062500, -0.3599
5.667968750,  0.1179
5.671875000,  1.8778
5.675781250,  0.3456
5.679687500, -0.1556
5.683593750, -0.3013
5.687500000, -0.2154
5.691406250, -0.2078
5.695312500, -0.2061
5.699218750, -0.2363
5.703125000, -0.1609
5.707031250, -0.1004
5.710937500, -0.0775
5.714843750, -0.1021
5.718750000, -0.1029
5.722656250, -0.0178
5.726562500,  0.0173
5.730468750, -0.0218
5.734375000, -0.0636
5.738281250, -0.0447
5.742187500,  0.0001
5.746093750, -0.0260
5.750000000, -0.1130
5.753906250, -0.1067
5.757812500, -0.0356
5.761718750,  0.0088
5.765625000, -0.0281
5.769531250, -0.0667
5.773437500, -0.0220
5.777343750,  0.0407
5.781250000,  0.0340
5.785156250, -0.0272
5.789062500, -0.0377
5.792968750,  0.0123
5.796875000,  0.0634
5.800781250,  0.0307
5.804687500, -0.0244
5.808593750, -0.0106
5.812500000,  0.0521
5.816406250,  0.0455
5.820312500,  0.0777
5.824218750,  0.0501
5.828125000,  0.0926
5.832031250,  0.0950
5.835937500,  0.0586
5.839843750, -0.0121
5.843750000, -0.0029
5.847656250, -0.2534
5.851562500,  0.2881
5.855468750,  1.5457
5.859375000,  0.0823
5.863281250, -0.1160
5.867187500, -0.1852
5.871093750, -0.1793
5.875000000, -0.2232
5.878906250, -0.1889
5.882812500, -0.1113
5.886718750, -0.0467
5.890625000, -0.0723
5.894531250, -0.0993
5.898437500, -0.0386
5.902343750,  0.0643
5.906250000,  0.0865
5.910156250,  0.0424
5.914062500,  0.0301
5.917968750,  0.0622
5.921875000,  0.0298
5.925781250, -0.0793
5.929687500, -0.1678
5.933593750, -0.1623
5.937500000, -0.0963
5.941406250, -0.0848
5.945312500, -0.1309
5.949218750, -0.1261
5.953125000, -0.0512
5.957031250,  0.0154
5.960937500, -0.0083
5.964843750, -0.0737
5.968750000, -0.0365
5.972656250,  0.0313
5.976562500,  0.0429
5.980468750, -0.0177
5.984375000, -0.0467
5.988281250, -0.0196
5.992187500,  0.0556
5.996093750,  0.1159
6.000000000,  0.0470
6.003906250,  0.0122
6.007812500,  0.0515
6.011718750,  0.0502
6.015625000, -0.0014
6.019531250, -0.1371
6.023437500, -0.2874
6.027343750,  1.0073
6.031250000,  0.8641
6.035156250, -0.0357
6.039062500, -0.2582
6.042968750, -0.1813
6.046875000, -0.1588
6.050781250, -0.1637
6.054687500, -0.1997
6.058593750, -0.1406
6.062500000, -0.0487
6.066406250, -0.0361
6.070312500, -0.0793
6.074218750, -0.0661
6.078125000,  0.0154
6.082031250,  0.0634
6.085937500,  0.0301
6.089843750, -0.0221
6.093750000, -0.0297
6.097656250, -0.0171
6.101562500, -0.0476
6.105468750, -0.1086
6.109375000, -0.1349
6.113281250, -0.0787
6.117187500, -0.0108
6.121093750, -0.0225
6.125000000, -0.0838
6.128906250, -0.0609
6.132812500,  0.0230
6.136718750,  0.0439
6.140625000, -0.0099
6.144531250, -0.0286
6.148437500, -0.0123
6.152343750,  0.0617
6.156250000,  0.0388
6.160156250, -0.0296
6.164062500, -0.0220
6.167968750,  0.0504
6.171875000,  0.0532
6.175781250, -0.0349
6.179687500,  0.0235
6.183593750,  0.0924
6.187500000,  0.1344
6.191406250,  0.0506
6.195312500, -0.0115
6.199218750, -0.0447
6.203125000,  0.0163
6.207031250, -0.2399
6.210937500,  0.0160
6.214843750,  1.7615
6.218750000,  0.3305
6.222656250, -0.0466
6.226562500, -0.2465
6.230468750, -0.2902
6.234375000, -0.2814
6.238281250, -0.1871
6.242187500, -0.1302
6.246093750, -0.1508
6.250000000, -0.1770
6.253906250, -0.1309
6.257812500, -0.0421
6.261718750, -0.0204
6.265625000, -0.0611
6.269531250, -0.0863
6.273437500, -0.0290
6.277343750,  0.0318
6.281250000, -0.0371
6.285156250, -0.1068
6.289062500, -0.1073
6.292968750, -0.0525
6.296875000, -0.0348
6.300781250, -0.0890
6.304687500, -0.1031
6.308593750, -0.0548
6.312500000,  0.0150
6.316406250,  0.0013
6.320312500, -0.0338
6.324218750, -0.0431
6.328125000,  0.0410
6.332031250,  0.0616
6.335937500,  0.0110
6.339843750, -0.0444
6.343750000,  0.0007
6.347656250,  0.0555
6.351562500,  0.0517
6.355468750, -0.0065
6.359375000, -0.0126
6.363281250,  0.0001
6.367187500,  0.0977
6.371093750,  0.0965
6.375000000,  0.0485
6.378906250,  0.0394
6.382812500,  0.0701
6.386718750,  0.0735
6.390625000, -0.0192
6.394531250, -0.1987
6.398437500, -0.2685
6.402343750,  1.6296
6.406250000,  0.6909
6.410156250,  0.0165
6.414062500, -0.2566
6.417968750, -0.2126
6.421875000, -0.1812
6.425781250, -0.2163
6.429687500, -0.2203
6.433593750, -0.1417
6.437500000, -0.0580
6.441406250, -0.0716
6.445312500, -0.1009
6.449218750, -0.0763
6.453125000,  0.0081
6.457031250,  0.0297
6.460937500, -0.0252
6.464843750, -0.0471
6.468750000, -0.0256
6.472656250, -0.0040
6.476562500, -0.0469
6.480468750, -0.1185
6.484375000, -0.1285
6.488281250, -0.0503
6.492187500, -0.0046
6.496093750, -0.0534
6.500000000, -0.0893
6.503906250, -0.0346
6.507812500,  0.0304
6.511718750,  0.0227
6.515625000, -0.0347
6.519531250, -0.0299
6.523437500,  0.0300
6.527343750,  0.0698
6.531250000,  0.0168
6.535156250, -0.0213
6.539062500, -0.0015
6.542968750,  0.0617
6.546875000,  0.0463
6.550781250, -0.0034
6.554687500,  0.0479
6.558593750,  0.1115
6.562500000,  0.1186
6.566406250,  0.0416
6.570312500, -0.0276
6.574218750, -0.0144
6.578125000,  0.0110
6.582031250, -0.2346
6.585937500,  0.5854
6.589843750,  0.9669
6.593750000, -0.0211
6.597656250, -0.1323
6.601562500, -0.1906
6.605468750, -0.2292
6.609375000, -0.1891
6.613281250, -0.1089
6.617187500, -0.0570
6.621093750, -0.1013
6.625000000, -0.1154
6.628906250, -0.0306
6.632812500,  0.0626
6.636718750,  0.0713
6.640625000,  0.0418
6.644531250,  0.0433
6.648437500,  0.1253
6.652343750,  0.1020
6.656250000, -0.0435
6.660156250, -0.1547
6.664062500, -0.1551
6.667968750, -0.1152
6.671875000, -0.1066
6.675781250, -0.1486
6.679687500, -0.1498
6.683593750, -0.0549
6.687500000, -0.0071
6.691406250, -0.0362
6.695312500, -0.0895
6.699218750, -0.0605
6.703125000,  0.0137
6.707031250,  0.0179
6.710937500, -0.0357
6.714843750, -0.0506
6.718750000, -0.0067
6.722656250,  0.0112
6.726562500,  0.0778
6.730468750,  0.0435
6.734375000,  0.0485
6.738281250,  0.0726
6.742187500,  0.0712
6.746093750, -0.0117
6.750000000, -0.0431
6.753906250, -0.1830
6.757812500, -0.1266
6.761718750,  1.5303
6.765625000,  0.2326
6.769531250, -0.0899
6.773437500, -0.1531
6.777343750, -0.1224
6.781250000, -0.1583
6.785156250, -0.1665
6.789062500, -0.1029
6.792968750, -0.0206
6.796875000, -0.0191
6.800781250, -0.0550
6.804687500, -0.0186
6.808593750,  0.0783
6.812500000,  0.1456
6.816406250,  0.1254
6.820312500,  0.0699
6.824218750,  0.0895
6.828125000,  0.0544
6.832031250, -0.0546
6.835937500, -0.1594
6.839843750, -0.1865
6.843750000, -0.1158
6.847656250, -0.0671
6.851562500, -0.0968
6.855468750, -0.1276
6.859375000, -0.0932
6.863281250, -0.0206
6.867187500, -0.0147
6.871093750, -0.0669
6.875000000, -0.0862
6.878906250, -0.0308
6.882812500,  0.0248
6.886718750,  0.0008
6.890625000, -0.0558
6.894531250, -0.0488
6.898437500,  0.0038
6.902343750,  0.0064
6.906250000,  0.0558
6.910156250,  0.0289
6.914062500,  0.0644
6.917968750,  0.0757
6.921875000,  0.0264
6.925781250, -0.0344
6.929687500, -0.0484
6.933593750, -0.2628
6.937500000,  0.4308
6.941406250,  1.4564
6.945312500,  0.0980
6.949218750, -0.1869
6.953125000, -0.2076
6.957031250, -0.2125
6.960937500, -0.2344
6.964843750, -0.2299
6.968750000, -0.1247
6.972656250, -0.0876
6.976562500, -0.1032
6.980468750, -0.1385
6.984375000, -0.0695
6.988281250,  0.0010
6.992187500,  0.0030
6.996093750, -0.0525
7.000000000, -0.0483
7.003906250, -0.0079
7.007812500,  0.0071
7.011718750, -0.0679
7.015625000, -0.1285
7.019531250, -0.1027
7.023437500, -0.0433
7.027343750, -0.0247
7.031250000, -0.0788
7.035156250, -0.0806
7.039062500, -0.0245
7.042968750,  0.0407
7.046875000,  0.0241
7.050781250, -0.0369
7.054687500, -0.0205
7.058593750,  0.0448
7.062500000,  0.0540
7.066406250,  0.0019
7.070312500, -0.0312
7.074218750,  0.0258
7.078125000,  0.0672
7.082031250,  0.0344
7.085937500, -0.0795
7.089843750,  0.0624
7.093750000,  0.1287
7.097656250,  0.1341
7.101562500,  0.0275
7.105468750, -0.0231
7.109375000,  0.0011
7.113281250,  0.0552
7.117187500, -0.2106
7.121093750, -0.1431
7.125000000,  1.8927
7.128906250,  0.5010
7.132812500,  0.0463
7.136718750, -0.2569
7.140625000, -0.3072
7.144531250, -0.2496
7.148437500, -0.1661
7.152343750, -0.1542
7.156250000, -0.1965
7.160156250, -0.1875
7.164062500, -0.1021
7.167968750, -0.0385
7.171875000, -0.0605
7.175781250, -0.0939
7.179687500, -0.0673
7.183593750, -0.0037
7.187500000,  0.0110
7.191406250, -0.0618
7.195312500, -0.0969
7.199218750, -0.0555
7.203125000, -0.0184
7.207031250, -0.0583
7.210937500, -0.0946
7.214843750, -0.0804
7.218750000, -0.0123
7.222656250,  0.0198
7.226562500, -0.0321
7.230468750, -0.0494
7.234375000, -0.0083
7.238281250,  0.0515
7.242187500,  0.0392
7.246093750, -0.0213
7.250000000, -0.0196
7.253906250,  0.0564
7.257812500,  0.0729
7.261718750,  0.0174
7.265625000, -0.0265
7.269531250,  0.0214
7.273437500,  0.0728
7.277343750,  0.0556
7.281250000, -0.0412
7.285156250, -0.0198
7.289062500,  0.1195
7.292968750,  0.1445
7.296875000,  0.0721
7.300781250, -0.0251
7.304687500, -0.0012
7.308593750,  0.0456
7.312500000, -0.0194
7.316406250, -0.3220
7.320312500,  0.7751
7.324218750,  1.1121
7.328125000,  0.1929
7.332031250, -0.2043
7.335937500, -0.3246
7.339843750, -0.2855
7.343750000, -0.1971
7.347656250, -0.1720
7.351562500, -0.2130
7.355468750, -0.1967
7.359375000, -0.1153
7.363281250, -0.0614
7.367187500, -0.0532
7.371093750, -0.1144
7.375000000, -0.0846
7.378906250,  0.0004
7.382812500,  0.0020
7.386718750, -0.0332
7.390625000, -0.1265
7.394531250, -0.0821
7.398437500, -0.0215
7.402343750, -0.0622
7.406250000, -0.1037
7.410156250, -0.1112
7.414062500, -0.0065
7.417968750,  0.0129
7.421875000, -0.0180
7.425781250, -0.0535
7.429687500,  0.0121
7.433593750,  0.0623
7.437500000,  0.0494
7.441406250, -0.0056
7.445312500, -0.0140
7.449218750,  0.0637
7.453125000,  0.0975
7.457031250,  0.0614
7.460937500,  0.0129
7.464843750,  0.0545
7.468750000,  0.1187
7.472656250,  0.0920
7.476562500,  0.0166
7.480468750, -0.0034
7.484375000,  0.0114
7.488281250,  0.1058
7.492187500,  0.1054
7.496093750,  0.0562
7.500000000,  0.0218
7.503906250,  0.0663
7.507812500,  0.0500
7.511718750, -0.0164
7.515625000, -0.1962
7.519531250, -0.2715
7.523437500,  1.4967
7.527343750,  0.6468
7.531250000,  0.0076
7.535156250, -0.2650
7.539062500, -0.2112
7.542968750, -0.1824
7.546875000, -0.2099
7.550781250, -0.2233
7.554687500, -0.1588
7.558593750, -0.0582
7.562500000, -0.0701
7.566406250, -0.0959
7.570312500, -0.0738
7.574218750,  0.0140
7.578125000,  0.0521
7.582031250,  0.0179
7.585937500, -0.0379
7.589843750, -0.0260
7.593750000, -0.0270
7.597656250, -0.0769
7.601562500, -0.1567
7.605468750, -0.1687
7.609375000, -0.1055
7.613281250, -0.0462
7.617187500, -0.0919
7.621093750, -0.1112
7.625000000, -0.0769
7.628906250,  0.0026
7.632812500, -0.0034
7.636718750, -0.0617
7.640625000, -0.0750
7.644531250,  0.0033
7.648437500,  0.0321
7.652343750, -0.0025
7.656250000, -0.0290
7.660156250, -0.0157
7.664062500,  0.0231
7.667968750, -0.0018
7.671875000,  0.0302
7.675781250,  0.0262
7.679687500,  0.0699
7.683593750,  0.0978
7.687500000,  0.0036
7.691406250, -0.0265
7.695312500,  0.0018
7.699218750, -0.2272
7.703125000,  0.0931
7.707031250,  1.5906
7.710937500,  0.1673
7.714843750, -0.1489
7.718750000, -0.1487
7.722656250, -0.1656
7.726562500, -0.1872
7.730468750, -0.1241
7.734375000, -0.1200
7.738281250, -0.0445
7.742187500, -0.1052
7.746093750, -0.1535
7.750000000, -0.0581
7.753906250,  0.0904
7.757812500,  0.0346
7.761718750, -0.0041
7.765625000,  0.0087
7.769531250,  0.0136
7.773437500, -0.0116
7.777343750, -0.1331
7.781250000, -0.2234
7.785156250, -0.1627
7.789062500, -0.0981
7.792968750, -0.1307
7.796875000, -0.1095
7.800781250, -0.1599
7.804687500, -0.0554
7.808593750,  0.0581
7.812500000,  0.0369
7.816406250, -0.0456
7.820312500,  0.0841
7.824218750,  0.0355
7.828125000,  0.0229
7.832031250, -0.0767
7.835937500, -0.0980
7.839843750, -0.0213
7.843750000,  0.1579
7.847656250,  0.0544
7.851562500,  0.0398
7.855468750,  0.0587
7.859375000,  0.2829
7.863281250,  0.2693
7.867187500,  0.2206
7.871093750,  0.1177
7.875000000,  0.1630
7.878906250,  0.2083
7.882812500,  0.1504
7.886718750, -0.2003
7.890625000,  0.4129
7.894531250,  1.7786
7.898437500,  0.4608
7.902343750, -0.0169
7.906250000, -0.1886
7.910156250, -0.1446
7.914062500, -0.0617
7.917968750, -0.0637
7.921875000, -0.1159
7.925781250, -0.1155
7.929687500, -0.0388
7.933593750,  0.0282
7.937500000,  0.0162
7.941406250, -0.0203
7.945312500,  0.0229
7.949218750,  0.0727
7.953125000,  0.0237
7.957031250, -0.1041
7.960937500, -0.1834
7.964843750, -0.2008
7.968750000, -0.2107
7.972656250, -0.3037
7.976562500, -0.4490
7.980468750, -0.4566
7.984375000, -0.3379
7.988281250, -0.3283
7.992187500, -0.4090
7.996093750, -0.3884
8.000000000, -0.2597
8.003906250, -0.1580
8.007812500, -0.1687
8.011718750, -0.1619
8.015625000, -0.1312
8.019531250, -0.0119
8.023437500,  0.0080
8.027343750, -0.0415
8.031250000, -0.0700
8.035156250, -0.0332
8.039062500,  0.1096
8.042968750,  0.1204
8.046875000,  0.0728
8.050781250,  0.0454
8.054687500,  0.0904
8.058593750,  0.1009
8.062500000,  0.0325
8.066406250, -0.1343
8.070312500, -0.2977
8.074218750,  1.4458
8.078125000,  0.8895
8.082031250,  0.0377
8.085937500, -0.2954
8.089843750, -0.2519
8.093750000, -0.2103
8.097656250, -0.2410
8.101562500, -0.2732
8.105468750, -0.2040
8.109375000, -0.1093
8.113281250, -0.0951
8.117187500, -0.1385
8.121093750, -0.1359
8.125000000, -0.0527
8.128906250, -0.0009
8.132812500, -0.0400
8.136718750, -0.0885
8.140625000, -0.0320
8.144531250,  0.0330
8.148437500,  0.0090
8.152343750, -0.0671
8.156250000, -0.0989
8.160156250, -0.0258
8.164062500,  0.0363
8.167968750,  0.0130
8.171875000, -0.0403
8.175781250, -0.0051
8.179687500,  0.0677
8.183593750,  0.0956
8.187500000,  0.0314
8.191406250,  0.0070
8.195312500,  0.0605
8.199218750,  0.1320
8.203125000,  0.1001
8.207031250,  0.0329
8.210937500,  0.0336
8.214843750,  0.0819
8.218750000,  0.1912
8.222656250,  0.1305
8.226562500,  0.0840
8.230468750,  0.0837
8.234375000,  0.1394
8.238281250,  0.1026
8.242187500,  0.0220
8.246093750, -0.2264
8.250000000, -0.1089
8.253906250,  1.8829
8.257812500,  0.4018
8.261718750, -0.0694
8.265625000, -0.1933
8.269531250, -0.1225
8.273437500, -0.0992
8.277343750, -0.1583
8.281250000, -0.1441
8.285156250, -0.0503
8.289062500,  0.0196
8.292968750, -0.0273
8.296875000, -0.0550
8.300781250, -0.0071
8.304687500,  0.1007
8.308593750,  0.1092
8.312500000,  0.0348
8.316406250, -0.0056
8.320312500,  0.0094
8.324218750, -0.0012
8.328125000, -0.0661
8.332031250, -0.1596
8.335937500, -0.1348
8.339843750, -0.0417
8.343750000, -0.0223
8.347656250, -0.0691
8.351562500, -0.1059
8.355468750, -0.0354
8.359375000,  0.0300
8.363281250,  0.0006
8.367187500, -0.0668
8.371093750, -0.0592
8.375000000,  0.0243
8.378906250,  0.0489
8.382812500, -0.0128
8.386718750, -0.0791
8.390625000,  0.0002
8.394531250,  0.1172
8.398437500,  0.1016
8.402343750, -0.0063
8.406250000, -0.0338
8.410156250,  0.0393
8.414062500,  0.0646
8.417968750, -0.1343
8.421875000, -0.3577
8.425781250,  1.2237
8.429687500,  0.5946
8.433593750, -0.0381
8.437500000, -0.2625
8.441406250, -0.2585
8.445312500, -0.1796
8.449218750, -0.0987
8.453125000, -0.1426
8.457031250, -0.1736
8.460937500, -0.1275
8.464843750, -0.0285
8.468750000, -0.0040
8.472656250, -0.0470
8.476562500, -0.0535
8.480468750,  0.0237
8.484375000,  0.0852
8.488281250,  0.0274
8.492187500, -0.0725
8.496093750, -0.1135
8.500000000, -0.0588
8.503906250, -0.0718
8.507812500, -0.1335
8.511718750, -0.1559
8.515625000, -0.0937
8.519531250, -0.0149
8.523437500, -0.0365
8.527343750, -0.0971
8.531250000, -0.0808
8.535156250,  0.0003
8.539062500,  0.0216
8.542968750, -0.0283
8.546875000, -0.0820
8.550781250, -0.0346
8.554687500,  0.0335
8.558593750,  0.0241
8.562500000, -0.0535
8.566406250, -0.0539
8.570312500, -0.0237
8.574218750,  0.1386
8.578125000,  0.0752
8.582031250,  0.0253
8.585937500,  0.0007
8.589843750,  0.0664
8.593750000,  0.0548
8.597656250, -0.0362
8.601562500, -0.3234
8.605468750, -0.0237
8.609375000,  1.8057
8.613281250,  0.3313
8.617187500, -0.1166
8.621093750, -0.2686
8.625000000, -0.1862
8.628906250, -0.1580
8.632812500, -0.2223
8.636718750, -0.2194
8.640625000, -0.1336
8.644531250, -0.0665
8.648437500, -0.0766
8.652343750, -0.1192
8.656250000, -0.0861
8.660156250, -0.0022
8.664062500,  0.0011
8.667968750, -0.0695
8.671875000, -0.1047
8.675781250, -0.0438
8.679687500,  0.0128
8.683593750, -0.0185
8.687500000, -0.0942
8.691406250, -0.0970
8.695312500, -0.0056
8.699218750,  0.0271
8.703125000, -0.0200
8.707031250, -0.0677
8.710937500, -0.0201
8.714843750,  0.0529
8.718750000,  0.0426
8.722656250, -0.0286
8.726562500, -0.0443
8.730468750,  0.0271
8.734375000,  0.0705
8.738281250,  0.0218
8.742187500, -0.0392
8.746093750,  0.0016
8.750000000,  0.0695
8.753906250,  0.0583
8.757812500, -0.0492
8.761718750,  0.0238
8.765625000,  0.0975
8.769531250,  0.1585
8.773437500,  0.0429
8.777343750, -0.0240
8.781250000, -0.0150
8.785156250,  0.0552
8.789062500, -0.2055
8.792968750, -0.1485
8.796875000,  1.8372
8.800781250,  0.4825
8.804687500,  0.0456
8.808593750, -0.2629
8.812500000, -0.3214
8.816406250, -0.2863
8.820312500, -0.1811
8.824218750, -0.1518
8.828125000, -0.1897
8.832031250, -0.2090
8.835937500, -0.1322
8.839843750, -0.0538
8.843750000, -0.0660
8.847656250, -0.1255
8.851562500, -0.1096
8.855468750, -0.0301
8.859375000,  0.0174
8.863281250, -0.0333
8.867187500, -0.0877
8.871093750, -0.0436
8.875000000,  0.0037
8.878906250, -0.0041
8.882812500, -0.0756
8.886718750, -0.0633
8.890625000,  0.0034
8.894531250,  0.0682
8.898437500,  0.0097
8.902343750, -0.0248
8.906250000,  0.0085
8.910156250,  0.0851
8.914062500,  0.0725
8.917968750,  0.0008
8.921875000, -0.0237
8.925781250,  0.0357
8.929687500,  0.0959
8.933593750,  0.0523
8.937500000, -0.0056
8.941406250,  0.0069
8.945312500,  0.0844
8.949218750,  0.0856
8.953125000, -0.0149
8.957031250, -0.0469
8.960937500,  0.0943
8.964843750,  0.1491
8.968750000,  0.0812
8.972656250, -0.0053
8.976562500, -0.0119
8.980468750,  0.0637
8.984375000, -0.0320
8.988281250, -0.3174
8.992187500,  1.1180
8.996093750,  0.8579
9.000000000,  0.1242
9.003906250, -0.1962
9.007812500, -0.3056
9.011718750, -0.2939
9.015625000, -0.1835
9.019531250, -0.1320
9.023437500, -0.1790
9.027343750, -0.2056
9.031250000, -0.1265
9.035156250, -0.0360
9.039062500, -0.0278
9.042968750, -0.0795
9.046875000, -0.0906
9.050781250, -0.0187
9.054687500,  0.0512
9.058593750, -0.0199
9.062500000, -0.0999
9.066406250, -0.0869
9.070312500, -0.0349
9.074218750, -0.0370
9.078125000, -0.0938
9.082031250, -0.1073
9.085937500, -0.0399
9.089843750,  0.0310
9.093750000, -0.0092
9.097656250, -0.0562
9.101562500, -0.0408
9.105468750,  0.0414
9.109375000,  0.0487
9.113281250, -0.0151
9.117187500, -0.0590
9.121093750,  0.0014
9.125000000,  0.0699
9.128906250,  0.0309
9.132812500, -0.0279
9.136718750, -0.0153
9.140625000,  0.0566
9.144531250,  0.0714
9.148437500, -0.0225
9.152343750, -0.0344
9.156250000,  0.0675
9.160156250,  0.1415
9.164062500,  0.0631
9.167968750, -0.0073
9.171875000, -0.0145
9.175781250,  0.0532
9.179687500, -0.1601
9.183593750, -0.1985
9.187500000,  1.5517
9.191406250,  0.2630
9.195312500, -0.0213
9.199218750, -0.1581
9.203125000, -0.2256
9.207031250, -0.2014
9.210937500, -0.1160
9.214843750, -0.0452
9.218750000, -0.0918
9.222656250, -0.1160
9.226562500, -0.0595
9.230468750,  0.0201
9.234375000,  0.0566
9.238281250, -0.0008
9.242187500, -0.0071
9.246093750,  0.0569
9.250000000,  0.1086
9.253906250,  0.0079
9.257812500, -0.1131
9.261718750, -0.1466
9.265625000, -0.0602
9.269531250, -0.0569
9.273437500, -0.1272
9.277343750, -0.1366
9.281250000, -0.0645
9.285156250,  0.0038
9.289062500, -0.0142
9.292968750, -0.0710
9.296875000, -0.0646
9.300781250,  0.0197
9.304687500,  0.0346
9.308593750, -0.0228
9.312500000, -0.0696
9.316406250, -0.0210
9.320312500,  0.0499
9.324218750,  0.0381
9.328125000, -0.0292
9.332031250, -0.0319
9.335937500,  0.0345
9.339843750,  0.0426
9.343750000,  0.0124
9.347656250,  0.0164
9.351562500,  0.0535
9.355468750,  0.0742
9.359375000,  0.0643
9.363281250, -0.0240
9.367187500, -0.0406
9.371093750, -0.2188
9.375000000, -0.1187
9.378906250,  1.7438
9.382812500,  0.3675
9.386718750, -0.0677
9.390625000, -0.2112
9.394531250, -0.1943
9.398437500, -0.2572
9.402343750, -0.2501
9.406250000, -0.1731
9.410156250, -0.0881
9.414062500, -0.1064
9.417968750, -0.1516
9.421875000, -0.1049
9.425781250, -0.0106
9.429687500,  0.0084
9.433593750, -0.0490
9.437500000, -0.0880
9.441406250, -0.0298
9.445312500,  0.0219
9.449218750, -0.0356
9.453125000, -0.1059
9.457031250, -0.0946
9.460937500, -0.0309
9.464843750,  0.0001
9.468750000, -0.0566
9.472656250, -0.0890
9.476562500, -0.0261
9.480468750,  0.0430
9.484375000,  0.0285
9.488281250, -0.0319
9.492187500, -0.0455
9.496093750,  0.0380
9.500000000,  0.0690
9.503906250,  0.0156
9.507812500, -0.0370
9.511718750,  0.0040
9.515625000,  0.0711
9.519531250,  0.0608
9.523437500, -0.0186
9.527343750, -0.0331
9.531250000,  0.0272
9.535156250,  0.0522
9.539062500,  0.0876
9.542968750,  0.0478
9.546875000,  0.0426
9.550781250,  0.0791
9.554687500,  0.0697
9.558593750, -0.0111
9.562500000, -0.0879
9.566406250, -0.2914
9.570312500,  0.7743
9.574218750,  1.1908
9.578125000,  0.1110
9.582031250, -0.2302
9.585937500, -0.2214
9.589843750, -0.2113
9.593750000, -0.2458
9.597656250, -0.2638
9.601562500, -0.1896
9.605468750, -0.1073
9.609375000, -0.1113
9.613281250, -0.1638
9.617187500, -0.1380
9.621093750, -0.0491
9.625000000, -0.0132
9.628906250, -0.0714
9.632812500, -0.1229
9.636718750, -0.0527
9.640625000,  0.0149
9.644531250, -0.0055
9.648437500, -0.0952
9.652343750, -0.0914
9.656250000, -0.0165
9.660156250,  0.0290
9.664062500, -0.0183
9.667968750, -0.0691
9.671875000, -0.0309
9.675781250,  0.0437
9.679687500,  0.0492
9.683593750, -0.0195
9.687500000, -0.0358
9.691406250,  0.0353
9.695312500,  0.0912
9.699218750,  0.0413
9.703125000, -0.0149
9.707031250,  0.0124
9.710937500,  0.0807
9.714843750,  0.0801
9.718750000,  0.0035
9.722656250, -0.0210
9.726562500,  0.0043
9.730468750,  0.0820
9.734375000,  0.0971
9.738281250,  0.0567
9.742187500,  0.0210
9.746093750,  0.0848
9.750000000,  0.0757
9.753906250,  0.0114
9.757812500, -0.2378
9.761718750, -0.2729
9.765625000,  1.7569
9.769531250,  0.6125
9.773437500, -0.0270
9.777343750, -0.2798
9.781250000, -0.2184
9.785156250, -0.1721
9.789062500, -0.2013
9.792968750, -0.2334
9.796875000, -0.1700
9.800781250, -0.0831
9.804687500, -0.0730
9.808593750, -0.1246
9.812500000, -0.1170
9.816406250, -0.0131
9.820312500,  0.0372
9.824218750, -0.0014
9.828125000, -0.0545
9.832031250, -0.0310
9.835937500, -0.0035
9.839843750, -0.0304
9.843750000, -0.1231
9.847656250, -0.1342
9.851562500, -0.0703
9.855468750, -0.0031
9.859375000, -0.0357
9.863281250, -0.0913
9.867187500, -0.0496
9.871093750,  0.0261
9.875000000,  0.0386
9.878906250, -0.0385
9.882812500, -0.0573
9.886718750, -0.0046
9.890625000,  0.0731
9.894531250,  0.0237
9.898437500, -0.0341
9.902343750, -0.0150
9.906250000,  0.0611
9.910156250,  0.0864
9.914062500,  0.0001
9.917968750, -0.0651
9.921875000,  0.0154
9.925781250,  0.1247
9.929687500,  0.1137
9.933593750, -0.0049
9.937500000, -0.0014
9.941406250,  0.0619
9.945312500,  0.0826
9.949218750, -0.2512
9.953125000, -0.1120
9.957031250,  1.6135
9.960937500,  0.2312
9.964843750, -0.0470
9.968750000, -0.2415
9.972656250, -0.2134
9.976562500, -0.1242
9.980468750, -0.0661
9.984375000, -0.0958
9.988281250, -0.1351
9.992187500, -0.0812
9.996093750,  0.0320
10.000000000,  0.0370
10.003906250, -0.0055
10.007812500, -0.0064
10.011718750,  0.0747
10.015625000,  0.1165
10.019531250,  0.0488
10.023437500, -0.0790
10.027343750, -0.1226
10.031250000, -0.0574
10.035156250, -0.0746
10.039062500, -0.1380
10.042968750, -0.1475
10.046875000, -0.0752
10.050781250, -0.0004
10.054687500, -0.0304
10.058593750, -0.0789
10.062500000, -0.0739
10.066406250,  0.0131
10.070312500,  0.0272
10.074218750, -0.0372
10.078125000, -0.0767
10.082031250, -0.0255
10.085937500,  0.0412
10.089843750,  0.0156
10.093750000, -0.0481
10.097656250, -0.0443
10.101562500,  0.0260
10.105468750,  0.0479
10.109375000, -0.0228
10.113281250,  0.0065
10.117187500,  0.0602
10.121093750,  0.1004
10.125000000,  0.0518
10.128906250, -0.0268
10.132812500, -0.0414
10.136718750, -0.0596
10.140625000, -0.2359
10.144531250,  1.0299
10.148437500,  0.8170
10.152343750,  0.0179
10.156250000, -0.1705
10.160156250, -0.2149
10.164062500, -0.2667
10.167968750, -0.2635
10.171875000, -0.1919
10.175781250, -0.1081
10.179687500, -0.1237
10.183593750, -0.1702
10.187500000, -0.1270
10.191406250, -0.0225
10.195312500, -0.0125
10.199218750, -0.0695
10.203125000, -0.0949
10.207031250, -0.0367
10.210937500,  0.0214
10.214843750, -0.0263
10.218750000, -0.0958
10.222656250, -0.0961
10.226562500, -0.0123
10.230468750,  0.0063
10.234375000, -0.0542
10.238281250, -0.0906
10.242187500, -0.0379
10.246093750,  0.0340
10.250000000,  0.0159
10.253906250, -0.0456
10.257812500, -0.0448
10.261718750,  0.0389
10.265625000,  0.0751
10.269531250,  0.0163
10.273437500, -0.0388
10.277343750,  0.0043
10.281250000,  0.0701
10.285156250,  0.0586
10.289062500, -0.0063
10.292968750, -0.0237
10.296875000,  0.0312
10.300781250,  0.0538
10.304687500,  0.0763
10.308593750,  0.0464
10.312500000,  0.0632
10.316406250,  0.0890
10.320312500,  0.0934
10.324218750,  0.0008
10.328125000, -0.0429
10.332031250, -0.2809
10.335937500,  0.4797
10.339843750,  1.5021
10.343750000,  0.1579
10.347656250, -0.1878
10.351562500, -0.2114
10.355468750, -0.2097
10.359375000, -0.2536
10.363281250, -0.2610
10.367187500, -0.1886
10.371093750, -0.1076
10.375000000, -0.1188
10.378906250, -0.1652
10.382812500, -0.1344
10.386718750, -0.0397
10.390625000, -0.0201
10.394531250, -0.0679
10.398437500, -0.1151
10.402343750, -0.0522
10.406250000,  0.0046
10.410156250, -0.0318
10.414062500, -0.0985
10.417968750, -0.1082
10.421875000, -0.0165
10.425781250,  0.0143
10.429687500, -0.0310
10.433593750, -0.0830
10.437500000, -0.0407
10.441406250,  0.0316
10.445312500,  0.0333
10.449218750, -0.0217
10.453125000, -0.0423
10.457031250,  0.0325
10.460937500,  0.0737
10.464843750,  0.0352
10.468750000, -0.0262
10.472656250,  0.0012
10.476562500,  0.0725
10.480468750,  0.0857
10.484375000,  0.0070
10.488281250, -0.0284
10.492187500,  0.0087
10.496093750,  0.0781
10.500000000,  0.1130
10.503906250,  0.0646
10.507812500,  0.0340
10.511718750,  0.0823
10.515625000,  0.0916
10.519531250,  0.0214
10.523437500, -0.1526
10.527343750, -0.2802
10.531250000,  1.2977
10.535156250,  0.7353
10.539062500, -0.0527
10.542968750, -0.2491
10.546875000, -0.1875
10.550781250, -0.1467
10.554687500, -0.1850
10.558593750, -0.2192
10.562500000, -0.1428
10.566406250, -0.0468
10.570312500, -0.0514
10.574218750, -0.0935
10.578125000, -0.0691
10.582031250,  0.0276
10.585937500,  0.0953
10.589843750,  0.0485
10.593750000, -0.0177
10.597656250, -0.0269
10.601562500, -0.0077
10.605468750, -0.0482
10.609375000, -0.1402
10.613281250, -0.1552
10.617187500, -0.0926
10.621093750, -0.0210
10.625000000, -0.0591
10.628906250, -0.1006
10.632812500, -0.0673
10.636718750,  0.0082
10.640625000,  0.0237
10.644531250, -0.0335
10.648437500, -0.0631
10.652343750, -0.0125
10.656250000,  0.0561
10.660156250,  0.0218
10.664062500, -0.0389
10.667968750, -0.0213
10.671875000,  0.0483
10.675781250,  0.0655
10.679687500, -0.0163
10.683593750, -0.0703
10.687500000,  0.0716
10.691406250,  0.1320
10.695312500,  0.0791
10.699218750, -0.0124
10.703125000, -0.0158
10.707031250,  0.0528
10.710937500, -0.0102
10.714843750, -0.2558
10.718750000,  0.7913
10.722656250,  0.6562
10.726562500, -0.0674
10.730468750, -0.1698
10.734375000, -0.2089
10.738281250, -0.2098
10.742187500, -0.1089
10.746093750, -0.0466
10.750000000, -0.0801
10.753906250, -0.1126
10.757812500, -0.0512
10.761718750,  0.0398
10.765625000,  0.0619
10.769531250,  0.0202
10.773437500,  0.0256
10.777343750,  0.0975
10.781250000,  0.1363
10.785156250,  0.0237
10.789062500, -0.1141
10.792968750, -0.1462
10.796875000, -0.0825
10.800781250, -0.0771
10.804687500, -0.1417
10.808593750, -0.1654
10.812500000, -0.0861
10.816406250, -0.0110
10.820312500, -0.0317
10.824218750, -0.0782
10.828125000, -0.0747
10.832031250,  0.0153
10.835937500,  0.0367
10.839843750, -0.0325
10.843750000, -0.0749
10.847656250, -0.0203
10.851562500,  0.0483
10.855468750,  0.0360
10.859375000, -0.0452
10.863281250, -0.0351
10.867187500,  0.0396
10.871093750,  0.0472
10.875000000,  0.0152
10.878906250,  0.0115
10.882812500,  0.0719
10.886718750,  0.0890
10.890625000,  0.0689
10.894531250, -0.0258
10.898437500, -0.0405
10.902343750, -0.1899
10.906250000, -0.1634
10.910156250,  1.6788
10.914062500,  0.4484
10.917968750, -0.0475
10.921875000, -0.2059
10.925781250, -0.2077
10.929687500, -0.2553
10.933593750, -0.2567
10.937500000, -0.1763
10.941406250, -0.0972
10.945312500, -0.1153
10.949218750, -0.1591
10.953125000, -0.1203
10.957031250, -0.0226
10.960937500, -0.0001
10.964843750, -0.0504
10.968750000, -0.0804
10.972656250, -0.0216
10.976562500,  0.0226
10.980468750, -0.0272
10.984375000, -0.1169
10.988281250, -0.1101
10.992187500, -0.0355
10.996093750, -0.0134
11.000000000, -0.0585
11.003906250, -0.1003
11.007812500, -0.0403
11.011718750,  0.0306
11.015625000,  0.0234
11.019531250, -0.0409
11.023437500, -0.0448
11.027343750,  0.0411
11.031250000,  0.0775
11.035156250,  0.0178
11.039062500, -0.0334
11.042968750,  0.0016
11.046875000,  0.0763
11.050781250,  0.0664
11.054687500, -0.0092
11.058593750, -0.0182
11.062500000,  0.0359
11.066406250,  0.0510
11.070312500,  0.0675
11.074218750,  0.0481
11.078125000,  0.0626
11.082031250,  0.0862
11.085937500,  0.0822
11.089843750, -0.0106
11.093750000, -0.0488
11.097656250, -0.2718
11.101562500,  0.2150
11.105468750,  1.7698
11.109375000,  0.2720
11.113281250, -0.1433
11.117187500, -0.2277
11.121093750, -0.2148
11.125000000, -0.2513
11.128906250, -0.2797
11.132812500, -0.1936
11.136718750, -0.1203
11.140625000, -0.1232
11.144531250, -0.1586
11.148437500, -0.1376
11.152343750, -0.0376
11.156250000,  0.0089
11.160156250, -0.0452
11.164062500, -0.0806
11.167968750, -0.0262
11.171875000,  0.0229
11.175781250, -0.0062
11.179687500, -0.1026
11.183593750, -0.1094
11.187500000, -0.0311
11.191406250,  0.0025
11.195312500, -0.0337
11.199218750, -0.0838
11.203125000, -0.0337
11.207031250,  0.0386
11.210937500,  0.0464
11.214843750, -0.0227
11.218750000, -0.0402
11.222656250,  0.0270
11.226562500,  0.0864
11.230468750,  0.0274
11.234375000, -0.0173
11.238281250,  0.0101
11.242187500,  0.0735
11.246093750,  0.0777
11.250000000,  0.0114
11.253906250, -0.0181
11.257812500,  0.0324
11.261718750,  0.0581
11.265625000,  0.0259
11.269531250,  0.0400
11.273437500,  0.0654
11.277343750,  0.1088
11.281250000,  0.1004
11.285156250,  0.0296
11.289062500, -0.0298
11.292968750, -0.0743
11.296875000, -0.2095
11.300781250,  1.0955
11.304687500,  0.7625
11.308593750, -0.0350
11.312500000, -0.1974
11.316406250, -0.1587
11.320312500, -0.2149
11.324218750, -0.2397
11.328125000, -0.1832
11.332031250, -0.0909
11.335937500, -0.0616
11.339843750, -0.1490
11.343750000, -0.1185
11.347656250, -0.0213
11.351562500,  0.0656
11.355468750,  0.0380
11.359375000,  0.0058
11.363281250,  0.0347
11.367187500,  0.0654
11.371093750, -0.0091
11.375000000, -0.1397
11.378906250, -0.1724
11.382812500, -0.1156
11.386718750, -0.0565
11.390625000, -0.0852
11.394531250, -0.1387
11.398437500, -0.0886
11.402343750, -0.0169
11.406250000, -0.0266
11.410156250, -0.1271
11.414062500, -0.1325
11.417968750, -0.1433
11.421875000, -0.1723
11.425781250, -0.1966
11.429687500, -0.1963
11.433593750,  0.2158
11.437500000,  0.1367
11.441406250,  0.2022
11.445312500,  0.1537
11.449218750,  0.1093
11.453125000,  0.1438
11.457031250,  0.2656
11.460937500,  0.2346
11.464843750,  0.0294
11.468750000, -0.0186
11.472656250, -0.0124
11.476562500, -0.1381
11.480468750, -0.2107
11.484375000, -0.4067
11.488281250,  0.3115
11.492187500,  0.7975
11.496093750, -0.8715
11.500000000, -2.9089
11.503906250, -3.9933
11.507812500, -3.5832
11.511718750, -3.4879
11.515625000, -1.3938
11.519531250, -0.6867
11.523437500,  0.4449
11.527343750,  1.7557
11.531250000,  2.1570
11.535156250,  2.5189
11.539062500,  2.3292
11.542968750,  2.0643
11.546875000,  1.8753
11.550781250,  1.8824
11.554687500,  1.7464
11.558593750,  1.5535
11.562500000,  1.2427
11.566406250,  0.9555
11.570312500,  0.6648
11.574218750,  0.2235
11.578125000,  0.0269
11.582031250, -0.2031
11.585937500, -0.3633
11.589843750, -0.5241
11.593750000, -0.6761
11.597656250, -0.6981
11.601562500, -0.9663
11.605468750, -0.9133
11.609375000,  0.1878
11.613281250,  0.9250
11.617187500,  0.9375
11.621093750,  1.4327
11.625000000,  1.3561
11.628906250,  1.4224
11.632812500,  1.2987
11.636718750,  1.1477
11.640625000,  0.9383
11.644531250,  0.9513
11.648437500,  0.8276
11.652343750,  0.7879
11.656250000,  0.5769
11.660156250,  0.3718
11.664062500,  0.2111
11.667968750,  0.0526
11.671875000, -0.3260
11.675781250,  0.4922
11.679687500,  0.8212
11.683593750, -0.3070
11.687500000, -0.7132
11.691406250, -0.8566
11.695312500, -0.9990
11.699218750, -1.0716
11.703125000, -1.0494
11.707031250, -1.0127
11.710937500, -1.0394
11.714843750, -1.0818
11.718750000, -1.0361
11.722656250, -0.9564
11.726562500, -0.9210
11.730468750, -0.9436
11.734375000, -0.9593
11.738281250, -0.8780
11.742187500, -0.7815
11.746093750, -0.7931
11.750000000, -0.8500
11.753906250, -0.8473
11.757812500, -0.7567
11.761718750, -0.7131
11.765625000, -0.7184
11.769531250, -0.7312
11.773437500, -0.6506
11.777343750, -0.5427
11.781250000, -0.5223
11.785156250, -0.5480
11.789062500, -0.5131
11.792968750, -0.4116
11.796875000, -0.3476
11.800781250, -0.3587
11.804687500, -0.3751
11.808593750, -0.3071
11.812500000, -0.2070
11.816406250, -0.1795
11.820312500, -0.2229
11.824218750, -0.2373
11.828125000, -0.0671
11.832031250,  0.0450
11.835937500,  0.0146
11.839843750, -0.0653
11.843750000, -0.0170
11.847656250,  0.0719
11.851562500,  0.0847
11.855468750, -0.2541
11.859375000,  0.4401
11.863281250,  1.6572
11.867187500,  0.3743
11.871093750,  0.0012
11.875000000, -0.1403
11.878906250, -0.1058
11.882812500,  0.0061
11.886718750,  0.0741
11.890625000,  0.0512
11.894531250,  0.0401
11.898437500,  0.1321
11.902343750,  0.2257
11.906250000,  0.2427
11.910156250,  0.2100
11.914062500,  0.2559
11.917968750,  0.3365
11.921875000,  0.3954
11.925781250,  0.3442
11.929687500,  0.2560
11.933593750,  0.2513
11.937500000,  0.2932
11.941406250,  0.2875
11.945312500,  0.2215
11.949218750,  0.2159
11.953125000,  0.2838
11.957031250,  0.3475
11.960937500,  0.3066
11.964843750,  0.2620
11.968750000,  0.2910
11.972656250,  0.3635
11.976562500,  0.3562
11.980468750,  0.2866
11.984375000,  0.2548
11.988281250,  0.3190
11.992187500,  0.3704
11.996093750,  0.3308
12.000000000,  0.2560
12.003906250,  0.2271
12.007812500,  0.2909
12.011718750,  0.3762
12.015625000,  0.3175
12.019531250,  0.2298
12.023437500,  0.2395
12.027343750,  0.2921
12.031250000,  0.2442
12.035156250,  0.0900
12.039062500, -0.1082
12.042968750,  1.0633
12.046875000,  0.9060
12.050781250,  0.0461
12.054687500, -0.1258
12.058593750, -0.0686
12.062500000, -0.0045
12.066406250,  0.0024
12.070312500, -0.0680
12.074218750, -0.0641
12.078125000,  0.0288
12.082031250,  0.0745
12.085937500,  0.0333
12.089843750, -0.0039
12.093750000,  0.0456
12.097656250,  0.1272
12.101562500,  0.1267
12.105468750,  0.0397
12.109375000, -0.0327
12.113281250, -0.0702
12.117187500, -0.0847
12.121093750, -0.1592
12.125000000, -0.2201
12.128906250, -0.2071
12.132812500, -0.1260
12.136718750, -0.1203
12.140625000, -0.1723
12.144531250, -0.1900
12.148437500, -0.1363
12.152343750, -0.0683
12.156250000, -0.1132
12.160156250, -0.1659
12.164062500, -0.1688
12.167968750, -0.0813
12.171875000, -0.0738
12.175781250, -0.1353
12.179687500, -0.1764
12.183593750, -0.1592
12.187500000, -0.0252
12.191406250, -0.0123
12.195312500, -0.0977
12.199218750, -0.1345
12.203125000, -0.0616
12.207031250, -0.0374
12.210937500, -0.1143
12.214843750, -0.4330
12.218750000,  0.1972
12.222656250,  1.2708
12.226562500, -0.0609
12.230468750, -0.2764
12.234375000, -0.3553
12.238281250, -0.2666
12.242187500, -0.2011
12.246093750, -0.2299
12.250000000, -0.2582
12.253906250, -0.2029
12.257812500, -0.1233
12.261718750, -0.0967
12.265625000, -0.1483
12.269531250, -0.1345
12.273437500, -0.0497
12.277343750,  0.0176
12.281250000, -0.0280
12.285156250, -0.1109
12.289062500, -0.1472
12.292968750, -0.1168
12.296875000, -0.1197
12.300781250, -0.1935
12.304687500, -0.2252
12.308593750, -0.1401
12.312500000, -0.0757
12.316406250, -0.0823
12.320312500, -0.1370
12.324218750, -0.1140
12.328125000, -0.0367
12.332031250, -0.0097
12.335937500, -0.0684
12.339843750, -0.1153
12.343750000, -0.0537
12.347656250,  0.0190
12.351562500,  0.0043
12.355468750, -0.0613
12.359375000, -0.0664
12.363281250,  0.0020
12.367187500,  0.0005
12.371093750,  0.0310
12.375000000,  0.0217
12.378906250,  0.0526
12.382812500,  0.0794
12.386718750,  0.0644
12.390625000, -0.0093
12.394531250, -0.0311
12.398437500, -0.2519
12.402343750,  0.0611
12.406250000,  1.8758
12.410156250,  0.3782
12.414062500, -0.0763
12.417968750, -0.2080
12.421875000, -0.2061
12.425781250, -0.2543
12.429687500, -0.2471
12.433593750, -0.1602
12.437500000, -0.0797
12.441406250, -0.1114
12.445312500, -0.1352
12.449218750, -0.0965
12.453125000, -0.0217
12.457031250,  0.0132
12.460937500, -0.0355
12.464843750, -0.0817
12.468750000,  0.0068
12.472656250,  0.0567
12.476562500,  0.0267
12.480468750, -0.0532
12.484375000, -0.0589
12.488281250,  0.0231
12.492187500,  0.0501
12.496093750,  0.0024
12.500000000, -0.0384
12.503906250,  0.0142
12.507812500,  0.0879
12.511718750,  0.0789
12.515625000,  0.0176
12.519531250,  0.0139
12.523437500,  0.0853
12.527343750,  0.1207
12.531250000,  0.0723
12.535156250,  0.0202
12.539062500,  0.0563
12.542968750,  0.1146
12.546875000,  0.1036
12.550781250,  0.0296
12.554687500, -0.0183
12.558593750,  0.1179
12.562500000,  0.1921
12.566406250,  0.1362
12.570312500,  0.0246
12.574218750,  0.0371
12.578125000,  0.0939
12.582031250,  0.0776
12.585937500, -0.2905
12.589843750,  0.2973
12.593750000,  1.6436
12.597656250,  0.3396
12.601562500, -0.1150
12.605468750, -0.2999
12.609375000, -0.2873
12.613281250, -0.1884
12.617187500, -0.1643
12.621093750, -0.1944
12.625000000, -0.2182
12.628906250, -0.1440
12.632812500, -0.0749
12.636718750, -0.0767
12.640625000, -0.1219
12.644531250, -0.1092
12.648437500, -0.0280
12.652343750, -0.0031
12.656250000, -0.0388
12.660156250, -0.0930
12.664062500, -0.0631
12.667968750, -0.0218
12.671875000, -0.0400
12.675781250, -0.0959
12.679687500, -0.1068
12.683593750, -0.0299
12.687500000,  0.0185
12.691406250, -0.0225
12.695312500, -0.0685
12.699218750, -0.0332
12.703125000,  0.0360
12.707031250,  0.0391
12.710937500, -0.0236
12.714843750, -0.0333
12.718750000,  0.0183
12.722656250,  0.0711
12.726562500,  0.0322
12.730468750, -0.0354
12.734375000, -0.0081
12.738281250,  0.0549
12.742187500,  0.0157
12.746093750, -0.0081
12.750000000,  0.0087
12.753906250,  0.0767
12.757812500,  0.0863
12.761718750,  0.0504
12.765625000, -0.0179
12.769531250, -0.0235
12.773437500, -0.2092
12.777343750, -0.0910
12.781250000,  1.6798
12.785156250,  0.2218
12.789062500, -0.0610
12.792968750, -0.1734
12.796875000, -0.1766
12.800781250, -0.2195
12.804687500, -0.1955
12.808593750, -0.1107
12.812500000, -0.0724
12.816406250, -0.1033
12.820312500, -0.1193
12.824218750, -0.0617
12.828125000,  0.0386
12.832031250,  0.0650
12.835937500,  0.0182
12.839843750,  0.0057
12.843750000,  0.0477
12.847656250,  0.0334
12.851562500, -0.0777
12.855468750, -0.1603
12.859375000, -0.1458
12.863281250, -0.0827
12.867187500, -0.0721
12.871093750, -0.1025
12.875000000, -0.1122
12.878906250, -0.0412
12.882812500,  0.0116
12.886718750, -0.0238
12.890625000, -0.0707
12.894531250, -0.0519
12.898437500,  0.0199
12.902343750,  0.0338
12.906250000, -0.0265
12.910156250, -0.0620
12.914062500, -0.0165
12.917968750,  0.0541
12.921875000, -0.0154
12.925781250,  0.0019
12.929687500,  0.0256
12.933593750,  0.1058
12.937500000,  0.0964
12.941406250,  0.0150
12.945312500, -0.0451
12.949218750, -0.0045
12.953125000, -0.1068
12.957031250, -0.1950
12.960937500,  1.3345
12.964843750,  0.2910
12.968750000, -0.0526
12.972656250, -0.1360
12.976562500, -0.1567
12.980468750, -0.1877
12.984375000, -0.1294
12.988281250, -0.0556
12.992187500, -0.0286
12.996093750, -0.0809
13.000000000, -0.0755
13.003906250,  0.0079
13.007812500,  0.0808
13.011718750,  0.0672
13.015625000,  0.0243
13.019531250,  0.0468
13.023437500,  0.0994
13.027343750,  0.0522
13.031250000, -0.0803
13.035156250, -0.1476
13.039062500, -0.1044
13.042968750, -0.0501
13.046875000, -0.0861
13.050781250, -0.1265
13.054687500, -0.1038
13.058593750, -0.0074
13.062500000,  0.0187
13.066406250, -0.0296
13.070312500, -0.0852
13.074218750, -0.0265
13.078125000,  0.0361
13.082031250,  0.0051
13.085937500, -0.0467
13.089843750, -0.0538
13.093750000,  0.0092
13.097656250,  0.0297
13.101562500, -0.0663
13.105468750,  0.0126
13.109375000,  0.0584
13.113281250,  0.1134
13.117187500,  0.0517
13.121093750, -0.0140
13.125000000, -0.0302
13.128906250,  0.0192
13.132812500, -0.2161
13.136718750,  0.1510
13.140625000,  1.6660
13.144531250,  0.2728
13.148437500, -0.0514
13.152343750, -0.1853
13.156250000, -0.2486
13.160156250, -0.2416
13.164062500, -0.1624
13.167968750, -0.0899
13.171875000, -0.0990
13.175781250, -0.1428
13.179687500, -0.1083
13.183593750, -0.0235
13.187500000,  0.0044
13.191406250, -0.0458
13.195312500, -0.0824
13.199218750, -0.0287
13.203125000,  0.0390
13.207031250,  0.0064
13.210937500, -0.0652
13.214843750, -0.0773
13.218750000, -0.0091
13.222656250,  0.0051
13.226562500, -0.0465
13.230468750, -0.0812
13.234375000, -0.0399
13.238281250,  0.0298
13.242187500,  0.0135
13.246093750, -0.0489
13.250000000, -0.0535
13.253906250,  0.0119
13.257812500,  0.0402
13.261718750, -0.0077
13.265625000, -0.0608
13.269531250, -0.0276
13.273437500,  0.0336
13.277343750,  0.0292
13.281250000, -0.0538
13.285156250, -0.0975
13.289062500,  0.0787
13.292968750,  0.1282
13.296875000,  0.0621
13.300781250, -0.0504
13.304687500, -0.0389
13.308593750,  0.0267
13.312500000,  0.0110
13.316406250, -0.3526
13.320312500,  0.2690
13.324218750,  1.5475
13.328125000,  0.2826
13.332031250, -0.1683
13.335937500, -0.3326
13.339843750, -0.3259
13.343750000, -0.2303
13.347656250, -0.1784
13.351562500, -0.2263
13.355468750, -0.2358
13.359375000, -0.1738
13.363281250, -0.0887
13.367187500, -0.0869
13.371093750, -0.1328
13.375000000, -0.1266
13.378906250, -0.0515
13.382812500, -0.0169
13.386718750, -0.0531
13.390625000, -0.0858
13.394531250, -0.0573
13.398437500, -0.0025
13.402343750, -0.0096
13.406250000, -0.0723
13.410156250, -0.0793
13.414062500,  0.0035
13.417968750,  0.0530
13.421875000,  0.0061
13.425781250, -0.0351
13.429687500, -0.0023
13.433593750,  0.0558
13.437500000,  0.0623
13.441406250, -0.0031
13.445312500, -0.0114
13.449218750,  0.0415
13.453125000,  0.0868
13.457031250,  0.0445
13.460937500, -0.0033
13.464843750,  0.0003
13.468750000,  0.0586
13.472656250,  0.0884
13.476562500,  0.0874
13.480468750,  0.0618
13.484375000,  0.0901
13.488281250,  0.0970
13.492187500,  0.0661
13.496093750, -0.0114
13.500000000, -0.0835
13.503906250, -0.2390
13.507812500,  1.0459
13.511718750,  0.9667
13.515625000,  0.0359
13.519531250, -0.2060
13.523437500, -0.1868
13.527343750, -0.1978
13.531250000, -0.2365
13.535156250, -0.2193
13.539062500, -0.1225
13.542968750, -0.0728
13.546875000, -0.0904
13.550781250, -0.1207
13.554687500, -0.0661
13.558593750,  0.0060
13.562500000,  0.0226
13.566406250, -0.0317
13.570312500, -0.0317
13.574218750,  0.0248
13.578125000,  0.0357
13.582031250, -0.0387
13.585937500, -0.1140
13.589843750, -0.0940
13.593750000, -0.0180
13.597656250,  0.0065
13.601562500, -0.0558
13.605468750, -0.0714
13.609375000, -0.0151
13.613281250,  0.0490
13.617187500,  0.0140
13.621093750, -0.0395
13.625000000, -0.0295
13.628906250,  0.0430
13.632812500,  0.0525
13.636718750, -0.0078
13.640625000, -0.0288
13.644531250,  0.0085
13.648437500,  0.0760
13.652343750,  0.0228
13.656250000,  0.0550
13.660156250,  0.0509
13.664062500,  0.0962
13.667968750,  0.0782
13.671875000,  0.0162
13.675781250, -0.0416
13.679687500, -0.0280
13.683593750, -0.2165
13.687500000,  0.5209
13.691406250,  0.9898
13.695312500, -0.1758
13.699218750, -0.1521
13.703125000, -0.1210
13.707031250, -0.1521
13.710937500, -0.1805
13.714843750, -0.1322
13.718750000, -0.0371
13.722656250, -0.0241
13.726562500, -0.0607
13.730468750, -0.0583
13.734375000,  0.0334
13.738281250,  0.1065
13.742187500,  0.0956
13.746093750,  0.0435
13.750000000,  0.0635
13.753906250,  0.0766
13.757812500,  0.0059
13.761718750, -0.1320
13.765625000, -0.1844
13.769531250, -0.1380
13.773437500, -0.0802
13.777343750, -0.0880
13.781250000, -0.1308
13.785156250, -0.1006
13.789062500, -0.0245
13.792968750,  0.0004
13.796875000, -0.0481
13.800781250, -0.0936
13.804687500, -0.0428
13.808593750,  0.0182
13.812500000, -0.0048
13.816406250, -0.0643
13.820312500, -0.0651
13.824218750, -0.0311
13.828125000,  0.1032
13.832031250,  0.0657
13.835937500,  0.0098
13.839843750, -0.0022
13.843750000,  0.0567
13.847656250,  0.0389
13.851562500, -0.0316
13.855468750, -0.2710
13.859375000, -0.1096
13.863281250,  1.6248
13.867187500,  0.2003
13.871093750, -0.1305
13.875000000, -0.2220
13.878906250, -0.1272
13.882812500, -0.1024
13.886718750, -0.1479
13.890625000, -0.1532
13.894531250, -0.0686
13.898437500,  0.0092
13.902343750, -0.0090
13.906250000, -0.0436
13.910156250, -0.0112
13.914062500,  0.0869
13.917968750,  0.1053
13.921875000,  0.0478
13.925781250, -0.0172
13.929687500, -0.0147
13.933593750, -0.0094
13.937500000, -0.0653
13.941406250, -0.1311
13.945312500, -0.1331
13.949218750, -0.0387
13.953125000, -0.0113
13.957031250, -0.0533
13.960937500, -0.0861
13.964843750, -0.0386
13.968750000,  0.0262
13.972656250,  0.0134
13.976562500, -0.0581
13.980468750, -0.0622
13.984375000,  0.0123
13.988281250,  0.0443
13.992187500, -0.0043
13.996093750, -0.0560
14.000000000, -0.0367
14.003906250,  0.0180
14.007812500,  0.0394
14.011718750,  0.0368
14.015625000,  0.0393
14.019531250,  0.0693
14.023437500,  0.0709
14.027343750,  0.0175
14.031250000, -0.0520
14.035156250, -0.1222
14.039062500, -0.2679
14.042968750,  1.1589
14.046875000,  0.8716
14.050781250,  0.0233
14.054687500, -0.2384
14.058593750, -0.2154
14.062500000, -0.2427
14.066406250, -0.2755
14.070312500, -0.2434
14.074218750, -0.1452
14.078125000, -0.1116
14.082031250, -0.1577
14.085937500, -0.1838
14.089843750, -0.1000
14.093750000, -0.0415
14.097656250, -0.0550
14.101562500, -0.1173
14.105468750, -0.1040
14.109375000, -0.0144
14.113281250,  0.0117
14.117187500, -0.0380
14.121093750, -0.0964
14.125000000, -0.0574
14.128906250,  0.0109
14.132812500,  0.0123
14.136718750, -0.0483
14.140625000, -0.0539
14.144531250,  0.0066
14.148437500,  0.0628
14.152343750,  0.0235
14.156250000, -0.0193
14.160156250,  0.0151
14.164062500,  0.0706
14.167968750,  0.0767
14.171875000,  0.0112
14.175781250, -0.0091
14.179687500,  0.0460
14.183593750,  0.0914
14.187500000,  0.0088
14.191406250,  0.0612
14.195312500,  0.0773
14.199218750,  0.1393
14.203125000,  0.0943
14.207031250,  0.0142
14.210937500, -0.0272
14.214843750,  0.0018
14.218750000, -0.2407
14.222656250,  0.3225
14.226562500,  1.6325
14.230468750,  0.2522
14.234375000, -0.1101
14.238281250, -0.2110
14.242187500, -0.2637
14.246093750, -0.2897
14.250000000, -0.2108
14.253906250, -0.1345
14.257812500, -0.1347
14.261718750, -0.1815
14.265625000, -0.1619
14.269531250, -0.0678
14.273437500, -0.0221
14.277343750, -0.0736
14.281250000, -0.1113
14.285156250, -0.0709
14.289062500,  0.0158
14.292968750,  0.0119
14.296875000, -0.0780
14.300781250, -0.1056
14.304687500, -0.0408
14.308593750,  0.0079
14.312500000, -0.0309
14.316406250, -0.0759
14.320312500, -0.0497
14.324218750,  0.0227
14.328125000,  0.0367
14.332031250, -0.0242
14.335937500, -0.0403
14.339843750,  0.0062
14.343750000,  0.0669
14.347656250,  0.0342
14.351562500, -0.0193
14.355468750, -0.0073
14.359375000,  0.0641
14.363281250,  0.0663
14.367187500,  0.0105
14.371093750, -0.0398
14.375000000, -0.0144
14.378906250,  0.0848
14.382812500,  0.1100
14.386718750,  0.0627
14.390625000,  0.0251
14.394531250,  0.0596
14.398437500,  0.0717
14.402343750,  0.0088
14.406250000, -0.1696
14.410156250, -0.3126
14.414062500,  1.3873
14.417968750,  0.7478
14.421875000, -0.0004
14.425781250, -0.2778
14.429687500, -0.2218
14.433593750, -0.1714
14.437500000, -0.1952
14.441406250, -0.2225
14.445312500, -0.1700
14.449218750, -0.0932
14.453125000, -0.0700
14.457031250, -0.1061
14.460937500, -0.0971
14.464843750, -0.0218
14.468750000,  0.0387
14.472656250,  0.0147
14.476562500, -0.0396
14.480468750, -0.0247
14.484375000, -0.0002
14.488281250, -0.0289
14.492187500, -0.1080
14.496093750, -0.1330
14.500000000, -0.0723
14.503906250, -0.0108
14.507812500, -0.0198
14.511718750, -0.0707
14.515625000, -0.0546
14.519531250,  0.0211
14.523437500,  0.0487
14.527343750, -0.0170
14.531250000, -0.0602
14.535156250, -0.0115
14.539062500,  0.0560
14.542968750,  0.0382
14.546875000, -0.0221
14.550781250, -0.0216
14.554687500,  0.0423
14.558593750,  0.0746
14.562500000, -0.0126
14.566406250,  0.0444
14.570312500,  0.0797
14.574218750,  0.1345
14.578125000,  0.0797
14.582031250,  0.0048
14.585937500, -0.0203
14.589843750,  0.0389
14.593750000, -0.1990
14.597656250,  0.0989
14.601562500,  1.4126
14.605468750,  0.0270
14.609375000, -0.0441
14.613281250, -0.1318
14.617187500, -0.1811
14.621093750, -0.1854
14.625000000, -0.1037
14.628906250, -0.0143
14.632812500, -0.0518
14.636718750, -0.0769
14.640625000, -0.0417
14.644531250,  0.0602
14.648437500,  0.0971
14.652343750,  0.0532
14.656250000,  0.0399
14.660156250,  0.0904
14.664062500,  0.1113
14.667968750,  0.0016
14.671875000, -0.1311
14.675781250, -0.1536
14.679687500, -0.1094
14.683593750, -0.0835
14.687500000, -0.1236
14.691406250, -0.1616
14.695312500, -0.0990
14.699218750, -0.0249
14.703125000, -0.0337
14.707031250, -0.0918
14.710937500, -0.0991
14.714843750, -0.0227
14.718750000,  0.0148
14.722656250, -0.0381
14.726562500, -0.0856
14.730468750, -0.0439
14.734375000,  0.0079
14.738281250, -0.0301
14.742187500, -0.0062
14.746093750,  0.0092
14.750000000,  0.0720
14.753906250,  0.0802
14.757812500,  0.0291
14.761718750, -0.0353
14.765625000, -0.0232
14.769531250, -0.1489
14.773437500, -0.1555
14.777343750,  1.4673
14.781250000,  0.1831
14.785156250, -0.0755
14.789062500, -0.1418
14.792968750, -0.1570
14.796875000, -0.1998
14.800781250, -0.1696
14.804687500, -0.0744
14.808593750, -0.0352
14.812500000, -0.0693
14.816406250, -0.0917
14.820312500, -0.0124
14.824218750,  0.0606
14.828125000,  0.0618
14.832031250,  0.0117
14.835937500,  0.0084
14.839843750,  0.0695
14.843750000,  0.0305
14.847656250, -0.0838
14.851562500, -0.1483
14.855468750, -0.1148
14.859375000, -0.0471
14.863281250, -0.0585
14.867187500, -0.0989
14.871093750, -0.1003
14.875000000, -0.0125
14.878906250,  0.0235
14.882812500, -0.0110
14.886718750, -0.0695
14.890625000, -0.0332
14.894531250,  0.0253
14.898437500,  0.0276
14.902343750, -0.0410
14.906250000, -0.0526
14.910156250,  0.0074
14.914062500,  0.0734
14.917968750,  0.0232
14.921875000, -0.0366
14.925781250, -0.0706
14.929687500,  0.1153
14.933593750,  0.1307
14.937500000,  0.0730
14.941406250, -0.0173
14.945312500,  0.0271
14.949218750,  0.0720
14.953125000,  0.0346
14.957031250, -0.2782
14.960937500, -0.1618
14.964843750,  1.8986
14.968750000,  0.5190
14.972656250, -0.0087
14.976562500, -0.3215
14.980468750, -0.2715
14.984375000, -0.1939
14.988281250, -0.1838
14.992187500, -0.2268
14.996093750, -0.2084
15.000000000, -0.1231
15.003906250, -0.0673
15.007812500, -0.1005
15.011718750, -0.1412
15.015625000, -0.0842
15.019531250, -0.0206
15.023437500, -0.0211
15.027343750, -0.0707
15.031250000, -0.0595
15.035156250, -0.0036
15.039062500,  0.0339
15.042968750, -0.0181
15.046875000, -0.0775
15.050781250, -0.0421
15.054687500,  0.0254
15.058593750,  0.0457
15.062500000, -0.0198
15.066406250, -0.0372
15.070312500,  0.0240
15.074218750,  0.0796
15.078125000,  0.0508
15.082031250,  0.0016
15.085937500,  0.0057
15.089843750,  0.0741
15.093750000,  0.0769
15.097656250,  0.0155
15.101562500, -0.0182
15.105468750,  0.0307
15.109375000,  0.0811
15.113281250,  0.0071
15.117187500,  0.0422
15.121093750,  0.0668
15.125000000,  0.1409
15.128906250,  0.1011
15.132812500,  0.0319
15.136718750, -0.0429
15.140625000,  0.0003
15.144531250, -0.1803
15.148437500, -0.1824
15.152343750,  1.8082
15.156250000,  0.5229
15.160156250,  0.0432
15.164062500, -0.2248
15.167968750, -0.2766
15.171875000, -0.3029
15.175781250, -0.2438
15.179687500, -0.1592
15.183593750, -0.1470
15.187500000, -0.1838
15.191406250, -0.1839
15.195312500, -0.1079
15.199218750, -0.0470
15.203125000, -0.0714
15.207031250, -0.1218
15.210937500, -0.0914
15.214843750, -0.0080
15.218750000,  0.0024
15.222656250, -0.0794
15.226562500, -0.1141
15.230468750, -0.0674
15.234375000, -0.0110
15.238281250, -0.0421
15.242187500, -0.0878
15.246093750, -0.0675
15.250000000,  0.0143
15.253906250,  0.0349
15.257812500, -0.0194
15.261718750, -0.0629
15.265625000, -0.0112
15.269531250,  0.0534
15.273437500,  0.0405
15.277343750, -0.0203
15.281250000, -0.0321
15.285156250,  0.0473
15.289062500,  0.0674
15.292968750,  0.0160
15.296875000, -0.0363
15.300781250,  0.0013
15.304687500,  0.0237
15.308593750,  0.0918
15.312500000,  0.0554
15.316406250,  0.0436
15.320312500,  0.0470
15.324218750,  0.0763
15.328125000,  0.0187
15.332031250, -0.0324
15.335937500, -0.2231
15.339843750, -0.2091
15.343750000,  1.7574
15.347656250,  0.5034
15.351562500, -0.0365
15.355468750, -0.2467
15.359375000, -0.1962
15.363281250, -0.2088
15.367187500, -0.2497
15.371093750, -0.2131
15.375000000, -0.1226
15.378906250, -0.0821
15.382812500, -0.1333
15.386718750, -0.1373
15.390625000, -0.0553
15.394531250,  0.0230
15.398437500,  0.0131
15.402343750, -0.0369
15.406250000, -0.0211
15.410156250,  0.0228
15.414062500, -0.0031
15.417968750, -0.0875
15.421875000, -0.1379
15.425781250, -0.1049
15.429687500, -0.0378
15.433593750, -0.0398
15.437500000, -0.0935
15.441406250, -0.0804
15.445312500, -0.0064
15.449218750,  0.0135
15.453125000, -0.0261
15.457031250, -0.0682
15.460937500, -0.0333
15.464843750,  0.0311
15.468750000,  0.0146
15.472656250, -0.0391
15.476562500, -0.0550
15.480468750,  0.0272
15.484375000,  0.0537
15.488281250, -0.0049
15.492187500, -0.0371
15.496093750,  0.0502
15.500000000,  0.1319
15.503906250,  0.0865
15.507812500,  0.0052
15.511718750, -0.0152
15.515625000,  0.0308
15.519531250,  0.0319
15.523437500, -0.2161
15.527343750,  0.6220
15.531250000,  0.7691
15.535156250, -0.0898
15.539062500, -0.1136
15.542968750, -0.1523
15.546875000, -0.1706
15.550781250, -0.0896
15.554687500, -0.0090
15.558593750, -0.0060
15.562500000, -0.0593
15.566406250, -0.0173
15.570312500,  0.0748
15.574218750,  0.1214
15.578125000,  0.0943
15.582031250,  0.0863
15.585937500,  0.1462
15.589843750,  0.1931
15.593750000,  0.1098
15.597656250, -0.0517
15.601562500, -0.1255
15.605468750, -0.0813
15.609375000, -0.0614
15.613281250, -0.1023
15.617187500, -0.1347
15.621093750, -0.0883
15.625000000, -0.0111
15.628906250, -0.0020
15.632812500, -0.0675
15.636718750, -0.0639
15.640625000, -0.0113
15.644531250,  0.0422
15.648437500, -0.0003
15.652343750, -0.0644
15.656250000, -0.0431
15.660156250, -0.0153
15.664062500,  0.1116
15.667968750,  0.0462
15.671875000,  0.0041
15.675781250,  0.0139
15.679687500,  0.0710
15.683593750,  0.0282
15.687500000, -0.0321
15.691406250, -0.2961
15.695312500,  0.0914
15.699218750,  1.5119
15.703125000,  0.0183
15.707031250, -0.1763
15.710937500, -0.2022
15.714843750, -0.1122
15.718750000, -0.1099
15.722656250, -0.1444
15.726562500, -0.1298
15.730468750, -0.0341
15.734375000,  0.0100
15.738281250, -0.0143
15.742187500, -0.0368
15.746093750,  0.0431
15.750000000,  0.1256
15.753906250,  0.1316
15.757812500,  0.0523
15.761718750, -0.0004
15.765625000, -0.0379
15.769531250, -0.0656
15.773437500, -0.1248
15.777343750, -0.1832
15.781250000, -0.1547
15.785156250, -0.0842
15.789062500, -0.0739
15.792968750, -0.1238
15.796875000, -0.1346
15.800781250, -0.0673
15.804687500, -0.0101
15.808593750, -0.0470
15.812500000, -0.1019
15.816406250, -0.0807
15.820312500, -0.0068
15.824218750,  0.0059
15.828125000, -0.0624
15.832031250, -0.0974
15.835937500, -0.0816
15.839843750,  0.0917
15.843750000,  0.0646
15.847656250,  0.0208
15.851562500, -0.0175
15.855468750,  0.0509
15.859375000,  0.0435
15.863281250, -0.0167
15.867187500, -0.3485
15.871093750, -0.0299
15.875000000,  1.8910
15.878906250,  0.4620
15.882812500, -0.1436
15.886718750, -0.3486
15.890625000, -0.2684
15.894531250, -0.2238
15.898437500, -0.2471
15.902343750, -0.2752
15.906250000, -0.2170
15.910156250, -0.1395
15.914062500, -0.1302
15.917968750, -0.1827
15.921875000, -0.1851
15.925781250, -0.1170
15.929687500, -0.0679
15.933593750, -0.1028
15.937500000, -0.1037
15.941406250, -0.0262
15.945312500,  0.0476
15.949218750,  0.0476
15.953125000, -0.0164
15.957031250, -0.0319
15.960937500,  0.0336
15.964843750,  0.0792
15.968750000,  0.0428
15.972656250, -0.0078
15.976562500,  0.0183
15.980468750,  0.0841
15.984375000,  0.1006
15.988281250,  0.0451
15.992187500,  0.0072
15.996093750,  0.0640
16.000000000,  0.1150
16.003906250,  0.0839
16.007812500,  0.0251
16.011718750,  0.0155
16.015625000,  0.0478
16.019531250,  0.1524
16.023437500,  0.1158
16.027343750,  0.0794
16.031250000,  0.0596
16.035156250,  0.1045
16.039062500,  0.0725
16.042968750, -0.0006
16.046875000, -0.2450
16.050781250, -0.0977
16.054687500,  2.0124
16.058593750,  0.5180
16.062500000, -0.0603
16.066406250, -0.2744
16.070312500, -0.2173
16.074218750, -0.2058
16.078125000, -0.2509
16.082031250, -0.2404
16.085937500, -0.1611
16.089843750, -0.0992
16.093750000, -0.1338
16.097656250, -0.1791
16.101562500, -0.1361
16.105468750, -0.0733
16.109375000, -0.0630
16.113281250, -0.1232
16.117187500, -0.1184
16.121093750, -0.0271
16.125000000,  0.0206
16.128906250, -0.0246
16.132812500, -0.0880
16.136718750, -0.0718
16.140625000,  0.0109
16.144531250,  0.0194
16.148437500, -0.0401
16.152343750, -0.0785
16.156250000, -0.0216
16.160156250,  0.0379
16.164062500,  0.0170
16.167968750, -0.0302
16.171875000, -0.0364
16.175781250,  0.0369
16.179687500,  0.0578
16.183593750,  0.0060
16.187500000, -0.0451
16.191406250,  0.0002
16.195312500,  0.0693
16.199218750,  0.0312
16.203125000, -0.0794
16.207031250,  0.0262
16.210937500,  0.1082
16.214843750,  0.1367
16.218750000,  0.0227
16.222656250, -0.0374
16.226562500, -0.0143
16.230468750,  0.0309
16.234375000, -0.2678
16.238281250,  0.0067
16.242187500,  1.6916
16.246093750,  0.3220
16.250000000, -0.0615
16.253906250, -0.2483
16.257812500, -0.3126
16.261718750, -0.2600
16.265625000, -0.1674
16.269531250, -0.1423
16.273437500, -0.1931
16.277343750, -0.1958
16.281250000, -0.1232
16.285156250, -0.0502
16.289062500, -0.0708
16.292968750, -0.1198
16.296875000, -0.1166
16.300781250, -0.0421
16.304687500, -0.0035
16.308593750, -0.0669
16.312500000, -0.1202
16.316406250, -0.0699
16.320312500, -0.0105
16.324218750, -0.0382
16.328125000, -0.0778
16.332031250, -0.0679
16.335937500,  0.0169
16.339843750,  0.0366
16.343750000,  0.0038
16.347656250, -0.0423
16.351562500,  0.0032
16.355468750,  0.0653
16.359375000,  0.0504
16.363281250, -0.0081
16.367187500, -0.0168
16.371093750,  0.0526
16.375000000,  0.0998
16.378906250,  0.0400
16.382812500, -0.0309
16.386718750, -0.0170
16.390625000,  0.1556
16.394531250,  0.1502
16.398437500,  0.0584
16.402343750,  0.0013
16.406250000,  0.0521
16.410156250,  0.1071
16.414062500,  0.0158
16.417968750, -0.2960
16.421875000,  0.5145
16.425781250,  1.1468
16.429687500,  0.0300
16.433593750, -0.1840
16.437500000, -0.2217
16.441406250, -0.1633
16.445312500, -0.0937
16.449218750, -0.0963
16.453125000, -0.1256
16.457031250, -0.1078
16.460937500, -0.0220
16.464843750,  0.0224
16.468750000,  0.0039
16.472656250, -0.0219
16.476562500,  0.0547
16.480468750,  0.1152
16.484375000,  0.0972
16.488281250,  0.0085
16.492187500, -0.0554
16.496093750, -0.0366
16.500000000, -0.0171
16.503906250, -0.0736
16.507812500, -0.1279
16.511718750, -0.0665
16.515625000, -0.0134
16.519531250,  0.0143
16.523437500, -0.0548
16.527343750, -0.0593
16.531250000,  0.0039
16.535156250,  0.0533
16.539062500, -0.0029
16.542968750, -0.0666
16.546875000, -0.0412
16.550781250,  0.0329
16.554687500, -0.0148
16.558593750,  0.0182
16.562500000,  0.0117
16.566406250,  0.0497
16.570312500,  0.0504
16.574218750,  0.0064
16.578125000, -0.0352
16.582031250, -0.0312
16.585937500, -0.1914
16.589843750, -0.0514
16.593750000,  1.3821
16.597656250, -0.0309
16.601562500, -0.1943
16.605468750, -0.1236
16.609375000, -0.1041
16.613281250, -0.1508
16.617187500, -0.1050
16.621093750, -0.0231
16.625000000,  0.0134
16.628906250, -0.0160
16.632812500, -0.0252
16.636718750,  0.0289
16.640625000,  0.1491
16.644531250,  0.1605
16.648437500,  0.1380
16.652343750,  0.1331
16.656250000,  0.1539
16.660156250,  0.0593
16.664062500, -0.0805
16.667968750, -0.1759
16.671875000, -0.1929
16.675781250, -0.1157
16.679687500, -0.0990
16.683593750, -0.1392
16.687500000, -0.1317
16.691406250, -0.0729
16.695312500, -0.0076
16.699218750, -0.0783
16.703125000, -0.1304
16.707031250, -0.1400
16.710937500,  0.0665
16.714843750,  0.0406
16.718750000, -0.0439
16.722656250, -0.0960
16.726562500, -0.0647
16.730468750,  0.0076
16.734375000, -0.0113
16.738281250, -0.2543
16.742187500, -0.0464
16.746093750,  1.2784
16.750000000,  0.0105
16.753906250, -0.2485
16.757812500, -0.2451
16.761718750, -0.1029
16.765625000, -0.0096
16.769531250, -0.0138
16.773437500, -0.0815
16.777343750, -0.0478
16.781250000,  0.0316
16.785156250,  0.1150
16.789062500,  0.1106
16.792968750,  0.0735
16.796875000,  0.1598
16.800781250,  0.2400
16.804687500,  0.2165
16.808593750,  0.0722
16.812500000, -0.0838
16.816406250, -0.1281
16.820312500, -0.1519
16.824218750, -0.1786
16.828125000, -0.2752
16.832031250, -0.1956
16.835937500, -0.0726
16.839843750, -0.0906
16.843750000, -0.1560
16.847656250, -0.0934
16.851562500, -0.1025
16.855468750, -0.0067
16.859375000,  0.0138
16.863281250, -0.0553
16.867187500, -0.0571
16.871093750, -0.0264
16.875000000, -0.0068
16.878906250, -0.1124
16.882812500, -0.1556
16.886718750, -0.2847
16.890625000,  0.7592
16.894531250,  0.4751
16.898437500, -0.5144
16.902343750, -0.3263
16.906250000, -0.1035
16.910156250, -0.0269
16.914062500, -0.0020
16.917968750, -0.0022
16.921875000,  0.0574
16.925781250,  0.1417
16.929687500,  0.0841
16.933593750,  0.0804
16.937500000,  0.0627
16.941406250,  0.1511
16.945312500,  0.1999
16.949218750,  0.1645
16.953125000,  0.0692
16.957031250, -0.0132
16.960937500, -0.0630
16.964843750, -0.1271
16.968750000, -0.1827
16.972656250, -0.1939
16.976562500, -0.1176
16.980468750, -0.0667
16.984375000, -0.1007
16.988281250, -0.1322
16.992187500, -0.0855
16.996093750,  0.0010
17.000000000, -0.0007
17.003906250,  0.0133
17.007812500,  0.0321
17.011718750,  0.0505
17.015625000,  0.0709
17.019531250,  0.0033
17.023437500, -0.0587
17.027343750, -0.0336
17.031250000, -0.0549
17.035156250, -0.2023
17.039062500,  0.9748
17.042968750,  0.3807
17.046875000, -0.2275
17.050781250, -0.1578
17.054687500, -0.0558
17.058593750, -0.0941
17.062500000, -0.0687
17.066406250,  0.0250
17.070312500,  0.0567
17.074218750,  0.0096
17.078125000,  0.0127
17.082031250,  0.0785
17.085937500,  0.1447
17.089843750,  0.1575
17.093750000,  0.1080
17.097656250,  0.0967
17.101562500,  0.1284
17.105468750,  0.0864
17.109375000, -0.0085
17.113281250, -0.0963
17.117187500, -0.0775
17.121093750, -0.0211
17.125000000, -0.0021
17.128906250, -0.0669
17.132812500, -0.0778
17.136718750, -0.0132
17.140625000,  0.0354
17.144531250,  0.0034
17.148437500, -0.0537
17.152343750, -0.0458
17.156250000, -0.0011
17.160156250,  0.0157
17.164062500, -0.0352
17.167968750, -0.0862
17.171875000,  0.0954
17.175781250,  0.1040
17.179687500,  0.0425
17.183593750, -0.0413
17.187500000, -0.0432
17.191406250,  0.0221
17.195312500, -0.0013
17.199218750, -0.2847
17.203125000,  0.4649
17.207031250,  0.9366
17.210937500, -0.0850
17.214843750, -0.2076
17.218750000, -0.2394
17.222656250, -0.2166
17.226562500, -0.1216
17.230468750, -0.0779
17.234375000, -0.1130
17.238281250, -0.1356
17.242187500, -0.0808
17.246093750, -0.0168
17.250000000, -0.0199
17.253906250, -0.0630
17.257812500, -0.0653
17.261718750,  0.0089
17.265625000,  0.0571
17.269531250,  0.0222
17.273437500, -0.0591
17.277343750, -0.0474
17.281250000, -0.0003
17.285156250, -0.0009
17.289062500, -0.0518
17.292968750, -0.0635
17.296875000, -0.0064
17.300781250,  0.0519
17.304687500,  0.0149
17.308593750, -0.0404
17.312500000, -0.0397
17.316406250,  0.0200
17.320312500,  0.0384
17.324218750, -0.0268
17.328125000, -0.0583
17.332031250, -0.0076
17.335937500,  0.0487
17.339843750,  0.0328
17.343750000, -0.0271
17.347656250, -0.0191
17.351562500,  0.0345
17.355468750,  0.0644
17.359375000, -0.0105
17.363281250,  0.0501
17.367187500,  0.0948
17.371093750,  0.1397
17.375000000,  0.0650
17.378906250, -0.0309
17.382812500, -0.0592
17.386718750,  0.0050
17.390625000, -0.1292
17.394531250, -0.2281
17.398437500,  1.4620
17.402343750,  0.5906
17.406250000,  0.0512
17.410156250, -0.2661
17.414062500, -0.3367
17.417968750, -0.3278
17.421875000, -0.2427
17.425781250, -0.1809
17.429687500, -0.1952
17.433593750, -0.2298
17.437500000, -0.1930
17.441406250, -0.1092
17.445312500, -0.0766
17.449218750, -0.1358
17.453125000, -0.1366
17.457031250, -0.0765
17.460937500,  0.0064
17.464843750, -0.0013
17.468750000, -0.0443
17.472656250, -0.0450
17.476562500,  0.0199
17.480468750,  0.0329
17.484375000, -0.0274
17.488281250, -0.0722
17.492187500, -0.0207
17.496093750,  0.0299
17.500000000,  0.0112
17.503906250, -0.0249
17.507812500, -0.0294
17.511718750,  0.0449
17.515625000,  0.0737
17.519531250,  0.0199
17.523437500, -0.0207
17.527343750,  0.0231
17.531250000,  0.0862
17.535156250,  0.0670
17.539062500,  0.0068
17.542968750, -0.0116
17.546875000,  0.0442
17.550781250,  0.0709
17.554687500,  0.1261
17.558593750,  0.0514
17.562500000,  0.0748
17.566406250,  0.0715
17.570312500,  0.0577
17.574218750, -0.0133
17.578125000, -0.0534
17.582031250, -0.2824
17.585937500,  0.3136
17.589843750,  1.6683
17.593750000,  0.2146
17.597656250, -0.2181
17.601562500, -0.2680
17.605468750, -0.2461
17.609375000, -0.2829
17.613281250, -0.2867
17.617187500, -0.2261
17.621093750, -0.1493
17.625000000, -0.1527
17.628906250, -0.1723
17.632812500, -0.1635
17.636718750, -0.0724
17.640625000, -0.0390
17.644531250, -0.0828
17.648437500, -0.1040
17.652343750, -0.0347
17.656250000,  0.0168
17.660156250, -0.0110
17.664062500, -0.0957
17.667968750, -0.0912
17.671875000, -0.0202
17.675781250,  0.0025
17.679687500, -0.0306
17.683593750, -0.0804
17.687500000, -0.0382
17.691406250,  0.0266
17.695312500,  0.0429
17.699218750, -0.0009
17.703125000, -0.0080
17.707031250,  0.0561
17.710937500,  0.0915
17.714843750,  0.0537
17.718750000,  0.0015
17.722656250,  0.0317
17.726562500,  0.0819
17.730468750,  0.0928
17.734375000,  0.0324
17.738281250,  0.0033
17.742187500,  0.0447
17.746093750,  0.1038
17.750000000,  0.1446
17.753906250,  0.0864
17.757812500,  0.0796
17.761718750,  0.0968
17.765625000,  0.0798
17.769531250,  0.0059
17.773437500, -0.0763
17.777343750, -0.2899
17.781250000,  0.6893
17.785156250,  1.2895
17.789062500,  0.1193
17.792968750, -0.2392
17.796875000, -0.2250
17.800781250, -0.1963
17.804687500, -0.2272
17.808593750, -0.2451
17.812500000, -0.1932
17.816406250, -0.1106
17.820312500, -0.0986
17.824218750, -0.1409
17.828125000, -0.1291
17.832031250, -0.0398
17.835937500,  0.0108
17.839843750, -0.0161
17.843750000, -0.0569
17.847656250, -0.0124
17.851562500,  0.0264
17.855468750,  0.0073
17.859375000, -0.0683
17.863281250, -0.0866
17.867187500, -0.0158
17.871093750,  0.0215
17.875000000, -0.0091
17.878906250, -0.0673
17.882812500, -0.0272
17.886718750,  0.0363
17.890625000,  0.0507
17.894531250, -0.0092
17.898437500, -0.0269
17.902343750,  0.0207
17.906250000,  0.0729
17.910156250,  0.0339
17.914062500, -0.0148
17.917968750, -0.0063
17.921875000,  0.0667
17.925781250,  0.0834
17.929687500,  0.0171
17.933593750, -0.0261
17.937500000,  0.0060
17.941406250,  0.0307
17.945312500,  0.0974
17.949218750,  0.0580
17.953125000,  0.0540
17.957031250,  0.0620
17.960937500,  0.0666
17.964843750,  0.0003
17.968750000, -0.0655
17.972656250, -0.2389
17.976562500, -0.1823
17.980468750,  1.7842
17.984375000,  0.4914
17.988281250, -0.0194
17.992187500, -0.2503
17.996093750, -0.2090
18.000000000, -0.2295
18.003906250, -0.2469
18.007812500, -0.2134
18.011718750, -0.1344
18.015625000, -0.1118
18.019531250, -0.1468
18.023437500, -0.1469
18.027343750, -0.0801
18.031250000, -0.0190
18.035156250, -0.0545
18.039062500, -0.0965
18.042968750, -0.0748
18.046875000, -0.0151
18.050781250, -0.0228
18.054687500, -0.0922
18.058593750, -0.1378
18.062500000, -0.0803
18.066406250, -0.0140
18.070312500, -0.0442
18.074218750, -0.0811
18.078125000, -0.0808
18.082031250, -0.0113
18.085937500,  0.0141
18.089843750, -0.0289
18.093750000, -0.0725
18.097656250, -0.0274
18.101562500,  0.0247
18.105468750,  0.0126
18.109375000, -0.0389
18.113281250, -0.0477
18.117187500,  0.0072
18.121093750,  0.0246
18.125000000, -0.0203
18.128906250, -0.0813
18.132812500, -0.0298
18.136718750,  0.0241
18.140625000,  0.0109
18.144531250, -0.0855
18.148437500, -0.0043
18.152343750,  0.0824
18.156250000,  0.1269
18.160156250,  0.0348
18.164062500, -0.0350
18.167968750, -0.0203
18.171875000,  0.0327
18.175781250, -0.1850
18.179687500, -0.2381
18.183593750,  1.7058
18.187500000,  0.5000
18.191406250,  0.0978
18.195312500, -0.2253
18.199218750, -0.2899
18.203125000, -0.2640
18.207031250, -0.1739
18.210937500, -0.1488
18.214843750, -0.1912
18.218750000, -0.2048
18.222656250, -0.1313
18.226562500, -0.0557
18.230468750, -0.0604
18.234375000, -0.1123
18.238281250, -0.1020
18.242187500, -0.0410
18.246093750, -0.0120
18.250000000, -0.0520
18.253906250, -0.1248
18.257812500, -0.0973
18.261718750, -0.0531
18.265625000, -0.0464
18.269531250, -0.1024
18.273437500, -0.1048
18.277343750, -0.0263
18.281250000,  0.0108
18.285156250, -0.0205
18.289062500, -0.0589
18.292968750, -0.0345
18.296875000,  0.0289
18.300781250,  0.0392
18.304687500, -0.0171
18.308593750, -0.0305
18.312500000,  0.0256
18.316406250,  0.0860
18.320312500,  0.0508
18.324218750,  0.0048
18.328125000,  0.0265
18.332031250,  0.0928
18.335937500,  0.1021
18.339843750,  0.0378
18.343750000, -0.0054
18.347656250,  0.0271
18.351562500,  0.1348
18.355468750,  0.1524
18.359375000,  0.1064
18.363281250,  0.0577
18.367187500,  0.1022
18.371093750,  0.1148
18.375000000,  0.0535
18.378906250, -0.2101
18.382812500, -0.1955
18.386718750,  1.7700
18.390625000,  0.5801
18.394531250,  0.0414
18.398437500, -0.2301
18.402343750, -0.1534
18.406250000, -0.1135
18.410156250, -0.1433
18.414062500, -0.1755
18.417968750, -0.1132
18.421875000, -0.0444
18.425781250, -0.0199
18.429687500, -0.0596
18.433593750, -0.0596
18.437500000,  0.0075
18.441406250,  0.0540
18.445312500,  0.0108
18.449218750, -0.0357
18.453125000, -0.0310
18.457031250,  0.0149
18.460937500,  0.0218
18.464843750, -0.0601
18.468750000, -0.0854
18.472656250, -0.0311
18.476562500,  0.0205
18.480468750, -0.0010
18.484375000, -0.0531
18.488281250, -0.0398
18.492187500,  0.0416
18.496093750,  0.0575
18.500000000, -0.0109
18.503906250, -0.0437
18.507812500,  0.0019
18.511718750,  0.0575
18.515625000,  0.0394
18.519531250, -0.0252
18.523437500, -0.0278
18.527343750,  0.0425
18.531250000,  0.0596
18.535156250,  0.0124
18.539062500, -0.0306
18.542968750, -0.0026
18.546875000,  0.0469
18.550781250,  0.0284
18.554687500, -0.0677
18.558593750,  0.0380
18.562500000,  0.0875
18.566406250,  0.1159
18.570312500,  0.0135
18.574218750, -0.0431
18.578125000, -0.0178
18.582031250,  0.0005
18.585937500, -0.2806
18.589843750,  0.4043
18.593750000,  1.1956
18.597656250,  0.0801
18.601562500, -0.1463
18.605468750, -0.2581
18.609375000, -0.3187
18.613281250, -0.2744
18.617187500, -0.1920
18.621093750, -0.1676
18.625000000, -0.2003
18.628906250, -0.1981
18.632812500, -0.1323
18.636718750, -0.0670
18.640625000, -0.0629
18.644531250, -0.1092
18.648437500, -0.1026
18.652343750, -0.0335
18.656250000, -0.0128
18.660156250, -0.0765
18.664062500, -0.1402
18.667968750, -0.1072
18.671875000, -0.0425
18.675781250, -0.0498
18.679687500, -0.1040
18.683593750, -0.0994
18.687500000, -0.0243
18.691406250,  0.0115
18.695312500, -0.0291
18.699218750, -0.0756
18.703125000, -0.0371
18.707031250,  0.0193
18.710937500,  0.0269
18.714843750, -0.0430
18.718750000, -0.0510
18.722656250,  0.0165
18.726562500,  0.0622
18.730468750,  0.0178
18.734375000, -0.0227
18.738281250, -0.0047
18.742187500,  0.0593
18.746093750,  0.0675
18.750000000,  0.0015
18.753906250, -0.0597
18.757812500,  0.1152
18.761718750,  0.1562
18.765625000,  0.1257
18.769531250,  0.0183
18.773437500,  0.0185
18.777343750,  0.0690
18.781250000,  0.0720
18.785156250, -0.2880
18.789062500,  0.1587
18.792968750,  1.5485
18.796875000,  0.2748
18.800781250, -0.0567
18.804687500, -0.2490
18.808593750, -0.2472
18.812500000, -0.1487
18.816406250, -0.1128
18.820312500, -0.1461
18.824218750, -0.1671
18.828125000, -0.1046
18.832031250, -0.0184
18.835937500, -0.0132
18.839843750, -0.0600
18.843750000, -0.0589
18.847656250, -0.0065
18.851562500,  0.0328
18.855468750, -0.0062
18.859375000, -0.0699
18.863281250, -0.0719
18.867187500, -0.0211
18.871093750, -0.0160
18.875000000, -0.0882
18.878906250, -0.0800
18.882812500, -0.0243
18.886718750,  0.0219
18.890625000, -0.0033
18.894531250, -0.0571
18.898437500, -0.0390
18.902343750,  0.0226
18.906250000,  0.0356
18.910156250, -0.0277
18.914062500, -0.0603
18.917968750, -0.0091
18.921875000,  0.0428
18.925781250,  0.0067
18.929687500, -0.0434
18.933593750, -0.0329
18.937500000,  0.0308
18.941406250,  0.0422
18.945312500, -0.0248
18.949218750, -0.0924
18.953125000,  0.0510
18.957031250,  0.1012
18.960937500,  0.0851
18.964843750, -0.0439
18.968750000, -0.0473
18.972656250,  0.0142
18.976562500, -0.0097
18.980468750, -0.3193
18.984375000,  0.5569
18.988281250,  1.0318
18.992187500,  0.0943
18.996093750, -0.1841
19.000000000, -0.2743
19.003906250, -0.2768
19.007812500, -0.1853
19.011718750, -0.1190
19.015625000, -0.1365
19.019531250, -0.1646
19.023437500, -0.1155
19.027343750, -0.0277
19.031250000, -0.0063
19.035156250, -0.0523
19.039062500, -0.0646
19.042968750, -0.0197
19.046875000,  0.0317
19.050781250,  0.0018
19.054687500, -0.0710
19.058593750, -0.0773
19.062500000, -0.0195
19.066406250, -0.0081
19.070312500, -0.0676
19.074218750, -0.0915
19.078125000, -0.0422
19.082031250,  0.0257
19.085937500,  0.0106
19.089843750, -0.0386
19.093750000, -0.0336
19.097656250,  0.0292
19.101562500,  0.0516
19.105468750,  0.0077
19.109375000, -0.0393
19.113281250,  0.0082
19.117187500,  0.0608
19.121093750,  0.0510
19.125000000, -0.0021
19.128906250, -0.0092
19.132812500,  0.0518
19.136718750,  0.0761
19.140625000,  0.0118
19.144531250, -0.0064
19.148437500,  0.0825
19.152343750,  0.1641
19.156250000,  0.1050
19.160156250,  0.0254
19.164062500, -0.0000
19.167968750,  0.0450
19.171875000, -0.1668
19.175781250, -0.1419
19.179687500,  1.6967
19.183593750,  0.4396
19.187500000,  0.0611
19.191406250, -0.1677
19.195312500, -0.2151
19.199218750, -0.2213
19.203125000, -0.1528
19.207031250, -0.0851
19.210937500, -0.0852
19.214843750, -0.1075
19.218750000, -0.0818
19.222656250,  0.0092
19.226562500,  0.0477
19.230468750,  0.0008
19.234375000, -0.0406
19.238281250,  0.0114
19.242187500,  0.0743
19.246093750,  0.0578
19.250000000, -0.0169
19.253906250, -0.0452
19.257812500,  0.0243
19.261718750,  0.0298
19.265625000, -0.0081
19.269531250, -0.0586
19.273437500, -0.0286
19.277343750,  0.0264
19.281250000,  0.0191
19.285156250, -0.0399
19.289062500, -0.0524
19.292968750,  0.0012
19.296875000,  0.0325
19.300781250, -0.0112
19.304687500, -0.0718
19.308593750, -0.0564
19.312500000,  0.0051
19.316406250,  0.0064
19.320312500, -0.0504
19.324218750, -0.0732
19.328125000, -0.0326
19.332031250, -0.0065
19.335937500, -0.0668
19.339843750, -0.0172
19.343750000,  0.0060
19.347656250,  0.0345
19.351562500,  0.0029
19.355468750, -0.0546
19.359375000, -0.1020
19.363281250, -0.2007
19.367187500, -0.3316
19.371093750,  1.2795
19.375000000,  0.5374
19.378906250, -0.0727
19.382812500, -0.2526
19.386718750, -0.2422
19.390625000, -0.2791
19.394531250, -0.2984
19.398437500, -0.2333
19.402343750, -0.1611
19.406250000, -0.1405
19.410156250, -0.1735
19.414062500, -0.1501
19.417968750, -0.0684
19.421875000, -0.0182
19.425781250, -0.0457
19.429687500, -0.0913
19.433593750, -0.0517
19.437500000, -0.0053
19.441406250, -0.0251
19.445312500, -0.0793
19.449218750, -0.0942
19.453125000, -0.0376
19.457031250,  0.0149
19.460937500, -0.0111
19.464843750, -0.0612
19.468750000, -0.0347
19.472656250,  0.0304
19.476562500,  0.0494
19.480468750,  0.0001
19.484375000, -0.0264
19.488281250,  0.0225
19.492187500,  0.0767
19.496093750,  0.0499
19.500000000, -0.0011
19.503906250,  0.0123
19.507812500,  0.0793
19.511718750,  0.0736
19.515625000,  0.0393
19.519531250,  0.0140
19.523437500,  0.0585
19.527343750,  0.0972
19.531250000,  0.1144
19.535156250,  0.0803
19.539062500,  0.1341
19.542968750,  0.1397
19.546875000,  0.1615
19.550781250,  0.1044
19.554687500,  0.0460
19.558593750, -0.2069
19.562500000, -0.0069
19.566406250,  1.7965
19.570312500,  0.4275
19.574218750, -0.0005
19.578125000, -0.1892
19.582031250, -0.1215
19.585937500, -0.1506
19.589843750, -0.1664
19.593750000, -0.1489
19.597656250, -0.0604
19.601562500, -0.0341
19.605468750, -0.0768
19.609375000, -0.0793
19.613281250, -0.0193
19.617187500,  0.0442
19.621093750,  0.0048
19.625000000, -0.0380
19.628906250, -0.0183
19.632812500,  0.0397
19.636718750,  0.0363
19.640625000, -0.0336
19.644531250, -0.0793
19.648437500, -0.0443
19.652343750,  0.0350
19.656250000,  0.0203
19.660156250, -0.0364
19.664062500, -0.0271
19.667968750,  0.0301
19.671875000,  0.0524
19.675781250, -0.0006
19.679687500, -0.0508
19.683593750, -0.0099
19.687500000,  0.0421
19.691406250,  0.0272
19.695312500, -0.0369
19.699218750, -0.0396
19.703125000,  0.0258
19.707031250,  0.0446
19.710937500,  0.0054
19.714843750, -0.0763
19.718750000, -0.0379
19.722656250,  0.0868
19.726562500,  0.0971
19.730468750, -0.0281
19.734375000, -0.0519
19.738281250,  0.0029
19.742187500,  0.0355
19.746093750, -0.3157
19.750000000, -0.1154
19.753906250,  1.5518
19.757812500,  0.2850
19.761718750, -0.0350
19.765625000, -0.2772
19.769531250, -0.2933
19.773437500, -0.2237
19.777343750, -0.1449
19.781250000, -0.1647
19.785156250, -0.1956
19.789062500, -0.1657
19.792968750, -0.0695
19.796875000, -0.0382
19.800781250, -0.0609
19.804687500, -0.0819
19.808593750, -0.0260
19.812500000,  0.0351
19.816406250,  0.0022
19.820312500, -0.0923
19.824218750, -0.1300
19.828125000, -0.0828
19.832031250, -0.0615
19.835937500, -0.1078
19.839843750, -0.1416
19.843750000, -0.0968
19.847656250, -0.0258
19.851562500, -0.0357
19.855468750, -0.0847
19.859375000, -0.0954
19.863281250, -0.0199
19.867187500,  0.0078
19.871093750, -0.0198
19.875000000, -0.0812
19.878906250, -0.0590
19.882812500,  0.0022
19.886718750,  0.0168
19.890625000, -0.0649
19.894531250, -0.0855
19.898437500, -0.0575
19.902343750,  0.0420
19.906250000,  0.0525
19.910156250, -0.0422
19.914062500, -0.0308
19.917968750,  0.0109
19.921875000,  0.0187
19.925781250, -0.0687
19.929687500, -0.3630
19.933593750,  0.4210
19.937500000,  0.9713
19.941406250, -0.1911
19.945312500, -0.2550
19.949218750, -0.2503
19.953125000, -0.1701
19.957031250, -0.1272
19.960937500, -0.1466
19.964843750, -0.1755
19.968750000, -0.1136
19.972656250, -0.0441
19.976562500, -0.0274
19.980468750, -0.0458
19.984375000, -0.0156
19.988281250,  0.0818
19.992187500,  0.1460
19.996093750,  0.0901
20.000000000, -0.0451
20.003906250, -0.1520
20.007812500, -0.1909
20.011718750, -0.2130
20.015625000, -0.2774
20.019531250, -0.2683
20.023437500, -0.1909
20.027343750, -0.1383
20.031250000, -0.1559
20.035156250, -0.1891
20.039062500, -0.1627
20.042968750, -0.0841
20.046875000, -0.0677
20.050781250, -0.1226
20.054687500, -0.1457
20.058593750, -0.1054
20.062500000,  0.0928
20.066406250,  0.0490
20.070312500, -0.0185
20.074218750, -0.0341
20.078125000,  0.0442
20.082031250,  0.0675
20.085937500,  0.0118
20.089843750, -0.2767
20.093750000,  0.3259
20.097656250,  1.3942
20.101562500,  0.0138
20.105468750, -0.0752
20.109375000, -0.0851
20.113281250,  0.0343
20.117187500,  0.1116
20.121093750,  0.0923
20.125000000,  0.0758
20.128906250,  0.1302
20.132812500,  0.1931
20.136718750,  0.1675
20.140625000,  0.0592
20.144531250, -0.0152
20.148437500,  0.0236
20.152343750,  0.0751
20.156250000,  0.0171
20.160156250, -0.1005
20.164062500, -0.1831
20.167968750, -0.1687
20.171875000, -0.1548
20.175781250, -0.1841
20.179687500, -0.1487
20.183593750, -0.0530
20.187500000,  0.0577
20.191406250,  0.0636
20.195312500,  0.0591
20.199218750,  0.1118
20.203125000,  0.2030
20.207031250,  0.2612
20.210937500,  0.2426
20.214843750,  0.2090
20.218750000,  0.2705
20.222656250,  0.2962
20.226562500,  0.4290
20.230468750,  0.3662
20.234375000,  0.3582
20.238281250,  0.3919
20.242187500,  0.3955
20.246093750,  0.3457
20.250000000,  0.2646
20.253906250,  0.0696
20.257812500,  1.3053
20.261718750,  1.4917
20.265625000,  0.4605
20.269531250,  0.0815
20.273437500,  0.0843
20.277343750,  0.1159
20.281250000,  0.0869
20.285156250,  0.0439
20.289062500,  0.0807
20.292968750,  0.1414
20.296875000,  0.1416
20.300781250,  0.0730
20.304687500,  0.0597
20.308593750,  0.1062
20.312500000,  0.1388
20.316406250,  0.0904
20.320312500,  0.0572
20.324218750,  0.0924
20.328125000,  0.1418
20.332031250,  0.1268
20.335937500,  0.0405
20.339843750, -0.0150
20.343750000,  0.0066
20.347656250,  0.0378
20.351562500, -0.0076
20.355468750, -0.0704
20.359375000, -0.0830
20.363281250, -0.0401
20.367187500, -0.0366
20.371093750, -0.0957
20.375000000, -0.1456
20.378906250, -0.1345
20.382812500, -0.0993
20.386718750, -0.1474
20.390625000, -0.2306
20.394531250, -0.2925
20.398437500, -0.1303
20.402343750, -0.1296
20.406250000, -0.1861
20.410156250, -0.3034
20.414062500, -0.2824
20.417968750, -0.2551
20.421875000, -0.2834
20.425781250, -0.6555
20.429687500, -0.2178
20.433593750,  1.4736
20.437500000, -0.0110
20.441406250, -0.5412
20.445312500, -0.7130
20.449218750, -0.7089
20.453125000, -0.6217
20.457031250, -0.5894
20.460937500, -0.6253
20.464843750, -0.6120
20.468750000, -0.5418
20.472656250, -0.4686
20.476562500, -0.4822
20.480468750, -0.5124
20.484375000, -0.4830
20.488281250, -0.4073
20.492187500, -0.3778
20.496093750, -0.4059
20.500000000, -0.4312
20.503906250, -0.3895
20.507812500, -0.3402
20.511718750, -0.3422
20.515625000, -0.3814
20.519531250, -0.3583
20.523437500, -0.2779
20.527343750, -0.2379
20.531250000, -0.2729
20.535156250, -0.2991
20.539062500, -0.2504
20.542968750, -0.1926
20.546875000, -0.2172
20.550781250, -0.2930
20.554687500, -0.3257
20.558593750, -0.2848
20.562500000, -0.2523
20.566406250, -0.3011
20.570312500, -0.3337
20.574218750, -0.2911
20.578125000, -0.2153
20.582031250, -0.1936
20.585937500, -0.2537
20.589843750, -0.2878
20.593750000, -0.1181
20.597656250, -0.0510
20.601562500, -0.0583
20.605468750, -0.1462
20.609375000, -0.0949
20.613281250, -0.0007
20.617187500,  0.0487
20.621093750, -0.2228
20.625000000, -0.0908
20.628906250,  1.9581
20.632812500,  0.6034
20.636718750,  0.1983
20.640625000, -0.0284
20.644531250,  0.0158
20.648437500,  0.1416
20.652343750,  0.2155
20.656250000,  0.2158
20.660156250,  0.2307
20.664062500,  0.3285
20.667968750,  0.4232
20.671875000,  0.4449
20.675781250,  0.4278
20.679687500,  0.4460
20.683593750,  0.5381
20.687500000,  0.5753
20.691406250,  0.5359
20.695312500,  0.4800
20.699218750,  0.4985
20.703125000,  0.5230
20.707031250,  0.4877
20.710937500,  0.4141
20.714843750,  0.3960
20.718750000,  0.4544
20.722656250,  0.4976
20.726562500,  0.4642
20.730468750,  0.4292
20.734375000,  0.4624
20.738281250,  0.5301
20.742187500,  0.5496
20.746093750,  0.5128
20.750000000,  0.5166
20.753906250,  0.5758
20.757812500,  0.6276
20.761718750,  0.5928
20.765625000,  0.5484
20.769531250,  0.5612
20.773437500,  0.6211
20.777343750,  0.6093
20.781250000,  0.5313
20.785156250,  0.4859
20.789062500,  0.4981
20.792968750,  0.5142
20.796875000,  0.4224
20.800781250,  0.3994
20.804687500,  0.3965
20.808593750,  0.4386
20.812500000,  0.3586
20.816406250,  0.2628
20.820312500,  0.1849
20.824218750,  0.1766
20.828125000, -0.1128
20.832031250,  0.1918
20.835937500,  1.6963
20.839843750,  0.2354
20.843750000, -0.0708
20.847656250, -0.2515
20.851562500, -0.3264
20.855468750, -0.3875
20.859375000, -0.3679
20.863281250, -0.3265
20.867187500, -0.3377
20.871093750, -0.4057
20.875000000, -0.4190
20.878906250, -0.3749
20.882812500, -0.3509
20.886718750, -0.3901
20.890625000, -0.4546
20.894531250, -0.4539
20.898437500, -0.4082
20.902343750, -0.4449
20.906250000, -0.5383
20.910156250, -0.5812
20.914062500, -0.5508
20.917968750, -0.5091
20.921875000, -0.5410
20.925781250, -0.5851
20.929687500, -0.5639
20.933593750, -0.5051
20.937500000, -0.4869
20.941406250, -0.5381
20.945312500, -0.5611
20.949218750, -0.5120
20.953125000, -0.4522
20.957031250, -0.4771
20.960937500, -0.5234
20.964843750, -0.5135
20.968750000, -0.4345
20.972656250, -0.4100
20.976562500, -0.4471
20.980468750, -0.4889
20.984375000, -0.4384
20.988281250, -0.3761
20.992187500, -0.3709
20.996093750, -0.4176
21.000000000, -0.4081
21.003906250, -0.3672
21.007812500, -0.2935
21.011718750, -0.2663
21.015625000, -0.2885
21.019531250, -0.2957
21.023437500, -0.2331
21.027343750, -0.2262
21.031250000, -0.2800
21.035156250, -0.5452
21.039062500, -0.3489
21.042968750,  1.5747
21.046875000,  0.2037
21.050781250, -0.2335
21.054687500, -0.4129
21.058593750, -0.3294
21.062500000, -0.2757
21.066406250, -0.2955
21.070312500, -0.2904
21.074218750, -0.2002
21.078125000, -0.1161
21.082031250, -0.1121
21.085937500, -0.1241
21.089843750, -0.0759
21.093750000,  0.0155
21.097656250,  0.0487
21.101562500,  0.0099
21.105468750, -0.0109
21.109375000,  0.0307
21.113281250,  0.0724
21.117187500,  0.0592
21.121093750,  0.0037
21.125000000,  0.0198
21.128906250,  0.0971
21.132812500,  0.1516
21.136718750,  0.1257
21.140625000,  0.1002
21.144531250,  0.1571
21.148437500,  0.2087
21.152343750,  0.2199
21.156250000,  0.1661
21.160156250,  0.1656
21.164062500,  0.2414
21.167968750,  0.2825
21.171875000,  0.2500
21.175781250,  0.2078
21.179687500,  0.2335
21.183593750,  0.2872
21.187500000,  0.2957
21.191406250,  0.2336
21.195312500,  0.2203
21.199218750,  0.2584
21.203125000,  0.3001
21.207031250,  0.2173
21.210937500,  0.1983
21.214843750,  0.2599
21.218750000,  0.3445
21.222656250,  0.2798
21.226562500,  0.2251
21.230468750,  0.1818
21.234375000,  0.2066
21.238281250, -0.0260
21.242187500,  0.1387
21.246093750,  1.8760
21.250000000,  0.4925
21.253906250,  0.1688
21.257812500, -0.0369
21.261718750, -0.0832
21.265625000, -0.1178
21.269531250, -0.0610
21.273437500,  0.0054
21.277343750,  0.0126
21.281250000, -0.0346
21.285156250, -0.0338
21.289062500,  0.0372
21.292968750,  0.0782
21.296875000,  0.0434
21.300781250, -0.0062
21.304687500,  0.0281
21.308593750,  0.0812
21.312500000,  0.0570
21.316406250, -0.0387
21.320312500, -0.0716
21.324218750, -0.0317
21.328125000, -0.0045
21.332031250, -0.0444
21.335937500, -0.0938
21.339843750, -0.0717
21.343750000, -0.0237
21.347656250,  0.1061
21.351562500,  0.2562
21.355468750,  0.3819
21.359375000,  0.5324
21.363281250,  0.6134
21.367187500,  0.5665
21.371093750,  0.4753
21.375000000,  0.4375
21.378906250,  0.4311
21.382812500,  0.3684
21.386718750,  0.2420
21.390625000,  0.1430
21.394531250,  0.1164
21.398437500,  0.0923
21.402343750, -0.0051
21.406250000, -0.1440
21.410156250, -0.1368
21.414062500, -0.0956
21.417968750, -0.1158
21.421875000, -0.2472
21.425781250, -0.3124
21.429687500, -0.3056
21.433593750, -0.2991
21.437500000, -0.6111
21.441406250, -0.0082
21.445312500,  0.9453
21.449218750, -0.2656
21.453125000, -0.5074
21.457031250, -0.6246
21.460937500, -0.6669
21.464843750, -0.6077
21.468750000, -0.5293
21.472656250, -0.5090
21.476562500, -0.5281
21.480468750, -0.5005
21.484375000, -0.4047
21.488281250, -0.3322
21.492187500, -0.3479
21.496093750, -0.3521
21.500000000, -0.3095
21.503906250, -0.1997
21.507812500, -0.1674
21.511718750, -0.2146
21.515625000, -0.2235
21.519531250, -0.1575
21.523437500, -0.0962
21.527343750, -0.0994
21.531250000, -0.1369
21.535156250, -0.1070
21.539062500, -0.0127
21.542968750,  0.0379
21.546875000, -0.0479
21.550781250, -0.1064
21.554687500, -0.0506
21.558593750,  0.0214
21.562500000,  0.0103
21.566406250, -0.0371
21.570312500, -0.0228
21.574218750,  0.0700
21.578125000,  0.0973
21.582031250,  0.0450
21.585937500,  0.0419
21.589843750,  0.0693
21.593750000,  0.1050
21.597656250,  0.0864
21.601562500,  0.1045
21.605468750,  0.1429
21.609375000,  0.2192
21.613281250,  0.2139
21.617187500,  0.1893
21.621093750,  0.1419
21.625000000,  0.1733
21.628906250, -0.0189
21.632812500,  0.5944
21.636718750,  1.7227
21.640625000,  0.3794
21.644531250,  0.1335
21.648437500,  0.0648
21.652343750,  0.0043
21.656250000, -0.0178
21.660156250,  0.0357
21.664062500,  0.1063
21.667968750,  0.1312
21.671875000,  0.1067
21.675781250,  0.1103
21.679687500,  0.1871
21.683593750,  0.2663
21.687500000,  0.2291
21.691406250,  0.1862
21.695312500,  0.1845
21.699218750,  0.2567
21.703125000,  0.2513
21.707031250,  0.1823
21.710937500,  0.1262
21.714843750,  0.1847
21.718750000,  0.2227
21.722656250,  0.2114
21.726562500,  0.1476
21.730468750,  0.1505
21.734375000,  0.2026
21.738281250,  0.2153
21.742187500,  0.1659
21.746093750,  0.1156
21.750000000,  0.1409
21.753906250,  0.1766
21.757812500,  0.1646
