0.015625000,  0.0084
0.031250000,  0.0175
0.046875000, -0.0140
0.062500000, -0.0045
0.078125000,  0.0025
0.093750000, -0.0423
0.109375000, -0.0699
0.125000000, -0.0794
0.140625000, -0.0899
0.156250000, -0.0371
0.171875000, -0.0419
0.187500000, -0.0508
0.203125000, -0.0382
0.218750000, -0.0035
0.234375000, -0.0276
0.250000000, -0.0244
0.265625000, -0.0233
0.281250000,  0.0093
0.296875000,  0.0026
0.312500000, -0.0020
0.328125000, -0.0160
0.343750000, -0.0110
0.359375000,  0.0095
0.375000000,  0.0066
0.390625000,  0.0179
0.406250000, -0.0004
0.421875000, -0.0269
0.437500000,  0.0542
0.453125000,  0.0839
0.468750000,  0.0667
0.484375000,  0.0168
0.500000000,  0.0466
0.515625000,  0.0423
0.531250000,  0.0218
0.546875000, -0.2871
0.562500000,  0.2708
0.578125000,  1.5082
0.593750000, -0.0505
0.609375000, -0.1212
0.625000000, -0.1891
0.640625000, -0.1481
0.656250000, -0.1323
0.671875000, -0.1058
0.687500000, -0.0945
0.703125000, -0.0667
0.718750000, -0.0345
0.734375000, -0.0192
0.750000000,  0.0077
0.765625000,  0.0158
0.781250000,  0.0435
0.796875000,  0.0256
0.812500000,  0.0195
0.828125000,  0.0051
0.843750000, -0.0404
0.859375000, -0.0646
0.875000000, -0.0892
0.890625000, -0.0980
0.906250000, -0.1174
0.921875000, -0.0630
0.937500000, -0.0358
0.953125000, -0.0458
0.968750000, -0.0395
0.984375000, -0.0279
1.000000000, -0.0111
1.015625000,  0.0082
1.031250000, -0.0056
1.046875000, -0.0169
1.062500000,  0.0037
1.078125000, -0.0015
1.093750000, -0.0049
1.109375000, -0.0248
1.125000000,  0.0036
1.140625000,  0.0147
1.156250000,  0.0341
1.171875000,  0.0145
1.187500000,  0.0037
1.203125000, -0.0123
1.218750000,  0.0430
1.234375000,  0.0831
1.250000000,  0.0761
1.265625000, -0.0003
1.281250000,  0.0343
1.296875000,  0.0148
1.312500000, -0.0032
1.328125000, -0.2623
1.343750000, -0.0941
1.359375000,  1.8074
1.375000000,  0.2123
1.390625000, -0.1310
1.406250000, -0.2383
1.421875000, -0.2131
1.437500000, -0.1788
1.453125000, -0.1677
1.468750000, -0.1470
1.484375000, -0.1307
1.500000000, -0.1029
1.515625000, -0.0768
1.531250000, -0.0606
1.546875000, -0.0536
1.562500000, -0.0321
1.578125000, -0.0148
1.593750000, -0.0498
1.609375000, -0.0725
1.625000000, -0.0542
1.640625000, -0.0559
1.656250000, -0.0443
1.671875000, -0.0656
1.687500000, -0.0664
1.703125000, -0.0330
1.718750000, -0.0137
1.734375000, -0.0123
1.750000000, -0.0310
1.765625000, -0.0038
1.781250000,  0.0095
1.796875000,  0.0192
1.812500000,  0.0138
1.828125000, -0.0018
1.843750000,  0.0226
1.859375000,  0.0289
1.875000000,  0.0223
1.890625000,  0.0115
1.906250000,  0.0106
1.921875000,  0.0123
1.937500000,  0.0465
1.953125000,  0.0320
1.968750000,  0.0244
1.984375000, -0.0063
2.000000000,  0.0401
2.015625000,  0.0973
2.031250000,  0.0988
2.046875000,  0.0325
2.062500000,  0.0328
2.078125000,  0.0337
2.093750000,  0.0081
2.109375000, -0.1528
2.125000000, -0.2762
2.140625000,  1.4963
2.156250000,  0.4930
2.171875000, -0.1065
2.187500000, -0.2398
2.203125000, -0.2411
2.218750000, -0.2077
2.234375000, -0.1925
2.250000000, -0.1783
2.265625000, -0.1573
2.281250000, -0.1155
2.296875000, -0.0932
2.312500000, -0.0784
2.328125000, -0.0501
2.343750000, -0.0216
2.359375000, -0.0368
2.375000000, -0.0409
2.390625000, -0.0548
2.406250000, -0.0564
2.421875000, -0.0605
2.437500000, -0.0613
2.453125000, -0.0635
2.468750000, -0.0871
2.484375000, -0.0532
2.500000000, -0.0244
2.515625000, -0.0125
2.531250000, -0.0192
2.546875000, -0.0192
2.562500000,  0.0061
2.578125000,  0.0229
2.593750000,  0.0145
2.609375000,  0.0010
2.625000000,  0.0188
2.640625000,  0.0309
2.656250000,  0.0308
2.671875000,  0.0082
2.687500000,  0.0129
2.703125000,  0.0319
2.718750000,  0.0671
2.734375000,  0.0377
2.750000000,  0.0356
2.765625000,  0.0082
2.781250000,  0.0464
2.796875000,  0.1081
2.812500000,  0.0956
2.828125000,  0.0170
2.843750000,  0.0339
2.859375000,  0.0163
2.875000000,  0.0185
2.890625000, -0.2759
2.906250000, -0.0522
2.921875000,  1.8512
2.937500000,  0.2267
2.953125000, -0.0900
2.968750000, -0.2472
2.984375000, -0.2354
3.000000000, -0.1981
3.015625000, -0.1802
3.031250000, -0.1728
3.046875000, -0.1326
3.062500000, -0.1114
3.078125000, -0.0764
3.093750000, -0.0600
3.109375000, -0.0430
3.125000000, -0.0517
3.140625000, -0.0188
3.156250000, -0.0249
3.171875000, -0.0481
3.187500000, -0.0629
3.203125000, -0.0639
3.218750000, -0.0639
3.234375000, -0.0727
3.250000000, -0.0699
3.265625000, -0.0654
3.281250000, -0.0335
3.296875000, -0.0101
3.312500000, -0.0348
3.328125000, -0.0158
3.343750000, -0.0041
3.359375000,  0.0046
3.375000000,  0.0120
3.390625000, -0.0119
3.406250000,  0.0040
3.421875000,  0.0244
3.437500000,  0.0200
3.453125000,  0.0177
3.468750000,  0.0099
3.484375000,  0.0396
3.500000000,  0.0351
3.515625000,  0.0329
3.531250000,  0.0093
3.546875000, -0.0113
3.562500000,  0.0598
3.578125000,  0.1154
3.593750000,  0.0812
3.609375000,  0.0067
3.625000000,  0.0374
3.640625000,  0.0221
3.656250000,  0.0199
3.671875000, -0.2927
3.687500000,  0.0565
3.703125000,  1.7915
3.718750000,  0.1678
3.734375000, -0.0963
3.750000000, -0.2420
3.765625000, -0.2355
3.781250000, -0.1923
3.796875000, -0.1567
3.812500000, -0.1609
3.828125000, -0.1411
3.843750000, -0.1009
3.859375000, -0.0566
3.875000000, -0.0474
3.890625000, -0.0472
3.906250000, -0.0295
3.921875000, -0.0261
3.937500000, -0.0191
3.953125000, -0.0349
3.968750000, -0.0599
3.984375000, -0.0600
4.000000000, -0.0649
4.015625000, -0.0782
4.031250000, -0.0696
4.046875000, -0.0605
4.062500000, -0.0267
4.078125000, -0.0106
4.093750000, -0.0080
4.109375000, -0.0072
4.125000000,  0.0072
4.140625000,  0.0290
4.156250000,  0.0130
4.171875000,  0.0216
4.187500000,  0.0145
4.203125000,  0.0190
4.218750000,  0.0171
4.234375000,  0.0259
4.250000000,  0.0260
4.265625000,  0.0245
4.281250000,  0.0379
4.296875000,  0.0409
4.312500000,  0.0215
4.328125000, -0.0288
4.343750000,  0.0609
4.359375000,  0.0967
4.375000000,  0.0785
4.390625000,  0.0134
4.406250000,  0.0173
4.421875000,  0.0204
4.437500000,  0.0079
4.453125000, -0.2975
4.468750000,  0.1841
4.484375000,  1.6569
4.500000000,  0.0801
4.515625000, -0.1175
4.531250000, -0.2485
4.546875000, -0.2196
4.562500000, -0.1877
4.578125000, -0.1430
4.593750000, -0.1452
4.609375000, -0.1294
4.625000000, -0.0913
4.640625000, -0.0467
4.656250000, -0.0290
4.671875000, -0.0224
4.687500000, -0.0110
4.703125000,  0.0106
4.718750000,  0.0156
4.734375000, -0.0166
4.750000000, -0.0516
4.765625000, -0.0923
4.781250000, -0.0768
4.796875000, -0.0956
4.812500000, -0.1076
4.828125000, -0.1014
4.843750000, -0.0724
4.859375000, -0.0517
4.875000000, -0.0349
4.890625000, -0.0401
4.906250000, -0.0342
4.921875000,  0.0066
4.937500000,  0.0002
4.953125000, -0.0115
4.968750000, -0.0093
4.984375000,  0.0087
5.000000000,  0.0179
5.015625000,  0.0216
5.031250000, -0.0029
5.046875000,  0.0139
5.062500000,  0.0073
5.078125000, -0.0009
5.093750000,  0.0369
5.109375000,  0.0791
5.125000000,  0.0857
5.140625000,  0.0450
5.156250000,  0.0533
5.171875000,  0.0424
5.187500000,  0.0049
5.203125000, -0.2220
5.218750000, -0.0472
5.234375000,  1.7027
5.250000000,  0.0374
5.265625000, -0.1530
5.281250000, -0.1540
5.296875000, -0.1440
5.312500000, -0.1360
5.328125000, -0.0992
5.343750000, -0.0877
5.359375000, -0.0584
5.375000000, -0.0278
5.390625000, -0.0365
5.406250000,  0.0062
5.421875000,  0.0526
5.437500000,  0.0762
5.453125000,  0.0413
5.468750000,  0.0521
5.484375000,  0.0386
5.500000000, -0.0011
5.515625000, -0.0779
5.531250000, -0.1347
5.546875000, -0.1179
5.562500000, -0.1047
5.578125000, -0.0900
5.593750000, -0.1012
5.609375000, -0.0911
5.625000000, -0.0521
5.640625000, -0.0257
5.656250000, -0.0245
5.671875000, -0.0407
5.687500000, -0.0171
5.703125000, -0.0175
5.718750000, -0.0167
5.734375000, -0.0138
5.750000000, -0.0247
5.765625000, -0.0231
5.781250000,  0.0039
5.796875000, -0.0073
5.812500000, -0.0028
5.828125000, -0.0404
5.843750000,  0.0378
5.859375000,  0.0792
5.875000000,  0.0547
5.890625000,  0.0089
5.906250000,  0.0121
5.921875000,  0.0340
5.937500000,  0.0258
5.953125000, -0.2787
5.968750000,  0.2242
5.984375000,  1.4761
6.000000000, -0.0989
6.015625000, -0.1353
6.031250000, -0.1887
6.046875000, -0.1532
6.062500000, -0.1174
6.078125000, -0.0881
6.093750000, -0.0884
6.109375000, -0.0647
6.125000000, -0.0288
6.140625000, -0.0165
6.156250000,  0.0267
6.171875000,  0.0405
6.187500000,  0.0574
6.203125000,  0.0827
6.218750000,  0.0991
6.234375000,  0.0383
6.250000000, -0.0259
6.265625000, -0.0722
6.281250000, -0.0970
6.296875000, -0.1000
6.312500000, -0.1111
6.328125000, -0.0990
6.343750000, -0.0796
6.359375000, -0.0549
6.375000000, -0.0517
6.390625000, -0.0426
6.406250000, -0.0306
6.421875000, -0.0031
6.437500000, -0.0076
6.453125000, -0.0218
6.468750000, -0.0041
6.484375000,  0.0083
6.500000000,  0.0209
6.515625000,  0.0052
6.531250000, -0.0171
6.546875000, -0.0293
6.562500000,  0.0943
6.578125000,  0.1039
6.593750000,  0.0442
6.609375000,  0.0183
6.625000000,  0.0276
6.640625000,  0.0189
6.656250000, -0.0155
6.671875000, -0.2710
6.687500000,  0.6451
6.703125000,  0.9149
6.718750000, -0.2287
6.734375000, -0.1831
6.750000000, -0.1673
6.765625000, -0.1290
6.781250000, -0.1033
6.796875000, -0.0862
6.812500000, -0.0728
6.828125000, -0.0595
6.843750000, -0.0203
6.859375000,  0.0046
6.875000000,  0.0253
6.890625000,  0.0334
6.906250000,  0.0657
6.921875000,  0.0674
6.937500000,  0.0684
6.953125000,  0.0142
6.968750000, -0.0681
6.984375000, -0.0918
7.000000000, -0.0917
7.015625000, -0.1086
7.031250000, -0.0994
7.046875000, -0.0840
7.062500000, -0.0568
7.078125000, -0.0422
7.093750000, -0.0479
7.109375000, -0.0484
7.125000000, -0.0238
7.140625000, -0.0066
7.156250000, -0.0159
7.171875000, -0.0138
7.187500000, -0.0204
7.203125000, -0.0001
7.218750000,  0.0002
7.234375000, -0.0061
7.250000000, -0.0067
7.265625000, -0.0065
7.281250000, -0.0202
7.296875000,  0.0511
7.312500000,  0.0653
7.328125000,  0.0523
7.343750000,  0.0176
7.359375000,  0.0349
7.375000000, -0.0098
7.390625000, -0.0174
7.406250000, -0.2813
7.421875000,  0.0938
7.437500000,  1.8424
7.453125000,  0.1616
7.468750000, -0.1215
7.484375000, -0.2629
7.500000000, -0.2278
7.515625000, -0.2156
7.531250000, -0.1929
7.546875000, -0.1800
7.562500000, -0.1438
7.578125000, -0.1233
7.593750000, -0.1156
7.609375000, -0.0859
7.625000000, -0.0587
7.640625000, -0.0478
7.656250000, -0.0483
7.671875000, -0.0520
7.687500000, -0.0412
7.703125000, -0.0215
7.718750000, -0.0185
7.734375000, -0.0647
7.750000000, -0.0528
7.765625000, -0.0383
7.781250000, -0.0170
7.796875000, -0.0058
7.812500000, -0.0261
7.828125000, -0.0135
7.843750000,  0.0230
7.859375000,  0.0171
7.875000000,  0.0229
7.890625000,  0.0177
7.906250000,  0.0327
7.921875000,  0.0430
7.937500000,  0.0249
7.953125000,  0.0330
7.968750000,  0.0215
7.984375000,  0.0476
8.000000000,  0.0447
8.015625000,  0.0413
8.031250000,  0.0139
8.046875000,  0.0276
8.062500000,  0.0110
8.078125000,  0.0489
8.093750000,  0.0805
8.109375000,  0.0760
8.125000000,  0.0276
8.140625000,  0.0274
8.156250000,  0.0164
8.171875000, -0.0057
8.187500000, -0.2332
8.203125000, -0.0996
8.218750000,  1.9781
8.234375000,  0.2960
8.250000000, -0.0689
8.265625000, -0.2727
8.281250000, -0.2612
8.296875000, -0.2299
8.312500000, -0.2187
8.328125000, -0.1737
8.343750000, -0.1423
8.359375000, -0.1209
8.375000000, -0.1187
8.390625000, -0.0994
8.406250000, -0.0658
8.421875000, -0.0448
8.437500000, -0.0477
8.453125000, -0.0500
8.468750000, -0.0410
8.484375000, -0.0369
8.500000000, -0.0673
8.515625000, -0.0691
8.531250000, -0.0750
8.546875000, -0.0659
8.562500000, -0.0498
8.578125000, -0.0579
8.593750000, -0.0467
8.609375000, -0.0543
8.625000000, -0.0216
8.640625000, -0.0013
8.656250000,  0.0104
8.671875000,  0.0006
8.687500000,  0.0199
8.703125000,  0.0281
8.718750000,  0.0418
8.734375000,  0.0468
8.750000000,  0.0188
8.765625000,  0.0426
8.781250000,  0.0495
8.796875000,  0.0384
8.812500000,  0.0304
8.828125000,  0.0302
8.843750000,  0.0306
8.859375000,  0.0284
8.875000000,  0.0211
8.890625000, -0.0033
8.906250000,  0.0940
8.921875000,  0.1087
8.937500000,  0.0827
8.953125000,  0.0189
8.968750000,  0.0345
8.984375000,  0.0373
9.000000000,  0.0246
9.015625000, -0.2729
9.031250000,  0.5331
9.046875000,  1.4339
9.062500000,  0.0291
9.078125000, -0.1610
9.093750000, -0.2667
9.109375000, -0.2520
9.125000000, -0.2264
9.140625000, -0.1868
9.156250000, -0.1905
9.171875000, -0.1612
9.187500000, -0.1359
9.203125000, -0.0885
9.218750000, -0.0860
9.234375000, -0.0592
9.250000000, -0.0469
9.265625000, -0.0105
9.281250000, -0.0136
9.296875000, -0.0091
9.312500000, -0.0517
9.328125000, -0.0813
9.343750000, -0.0787
9.359375000, -0.0729
9.375000000, -0.0877
9.390625000, -0.0895
9.406250000, -0.0561
9.421875000, -0.0355
9.437500000, -0.0439
9.453125000, -0.0412
9.468750000, -0.0319
9.484375000, -0.0091
9.500000000,  0.0025
9.515625000, -0.0074
9.531250000,  0.0032
9.546875000,  0.0076
9.562500000,  0.0105
9.578125000,  0.0174
9.593750000,  0.0079
9.609375000,  0.0077
9.625000000,  0.0319
9.640625000,  0.0499
9.656250000,  0.0255
9.671875000,  0.0229
9.687500000,  0.0211
9.703125000,  0.0358
9.718750000,  0.0228
9.734375000,  0.0038
9.750000000, -0.0041
9.765625000,  0.0931
9.781250000,  0.1214
9.796875000,  0.0735
9.812500000,  0.0249
9.828125000,  0.0076
9.843750000,  0.0212
9.859375000, -0.0082
9.875000000, -0.3041
9.890625000,  0.6385
9.906250000,  1.2144
9.921875000, -0.0413
9.937500000, -0.1757
9.953125000, -0.2559
9.968750000, -0.2554
9.984375000, -0.2128
10.000000000, -0.1844
10.015625000, -0.1699
10.031250000, -0.1564
10.046875000, -0.1177
10.062500000, -0.0815
10.078125000, -0.0661
10.093750000, -0.0524
10.109375000, -0.0378
10.125000000, -0.0190
10.140625000,  0.0003
10.156250000, -0.0215
10.171875000, -0.0583
10.187500000, -0.0717
10.203125000, -0.0821
10.218750000, -0.0823
10.234375000, -0.0885
10.250000000, -0.0932
10.265625000, -0.0445
10.281250000, -0.0392
10.296875000, -0.0405
10.312500000, -0.0296
10.328125000, -0.0022
10.343750000,  0.0153
10.359375000,  0.0274
10.375000000,  0.0029
10.390625000,  0.0146
10.406250000,  0.0310
10.421875000,  0.0394
10.437500000,  0.0363
10.453125000,  0.0244
10.468750000,  0.0355
10.484375000,  0.0482
10.500000000,  0.0468
10.515625000,  0.0264
10.531250000,  0.0296
10.546875000,  0.0487
10.562500000,  0.0554
10.578125000,  0.0337
10.593750000, -0.0046
10.609375000,  0.0725
10.625000000,  0.1127
10.640625000,  0.0890
10.656250000,  0.0491
10.671875000,  0.0223
10.687500000,  0.0301
10.703125000,  0.0398
10.718750000, -0.2642
10.734375000,  0.1068
10.750000000,  1.7951
10.765625000,  0.1691
10.781250000, -0.0755
10.796875000, -0.2453
10.812500000, -0.2324
10.828125000, -0.2189
10.843750000, -0.1644
10.859375000, -0.1482
10.875000000, -0.1305
10.890625000, -0.1050
10.906250000, -0.0864
10.921875000, -0.0326
10.937500000, -0.0156
10.953125000, -0.0162
10.968750000, -0.0042
10.984375000,  0.0375
11.000000000,  0.0304
11.015625000, -0.0432
11.031250000, -0.1041
11.046875000, -0.1106
11.062500000, -0.1096
11.078125000, -0.1132
11.093750000, -0.1148
11.109375000, -0.0845
11.125000000, -0.0795
11.140625000, -0.0508
11.156250000, -0.0525
11.171875000, -0.0446
11.187500000, -0.0411
11.203125000, -0.0146
11.218750000, -0.0102
11.234375000, -0.0227
11.250000000, -0.0089
11.265625000, -0.0004
11.281250000,  0.0213
11.296875000,  0.0016
11.312500000,  0.0028
11.328125000,  0.0153
11.343750000,  0.0433
11.359375000,  0.0262
11.375000000,  0.0135
11.390625000,  0.0222
11.406250000,  0.0115
11.421875000,  0.0125
11.437500000,  0.0282
11.453125000,  0.0894
11.468750000,  0.0893
11.484375000,  0.0496
11.500000000,  0.0277
11.515625000,  0.0417
11.531250000,  0.0110
11.546875000, -0.1412
11.562500000, -0.1970
11.578125000,  1.4994
11.593750000,  0.2639
11.609375000, -0.1648
11.625000000, -0.1864
11.640625000, -0.1626
11.656250000, -0.1537
11.671875000, -0.1395
11.687500000, -0.1002
11.703125000, -0.0762
11.718750000, -0.0533
11.734375000, -0.0576
11.750000000, -0.0185
11.765625000,  0.0301
11.781250000,  0.0642
11.796875000,  0.0536
11.812500000,  0.0629
11.828125000,  0.0512
11.843750000,  0.0163
11.859375000, -0.0829
11.875000000, -0.1303
11.890625000, -0.1554
11.906250000, -0.1502
11.921875000, -0.1185
11.937500000, -0.1160
11.953125000, -0.0991
11.968750000, -0.0687
11.984375000, -0.0474
12.000000000, -0.0378
12.015625000, -0.0476
12.031250000, -0.0326
12.046875000, -0.0382
12.062500000, -0.0166
12.078125000, -0.0189
12.093750000, -0.0091
12.109375000, -0.0111
12.125000000,  0.0169
12.140625000,  0.0058
12.156250000,  0.0098
12.171875000,  0.0179
12.187500000, -0.0216
12.203125000,  0.0494
12.218750000,  0.0876
12.234375000,  0.0607
12.250000000,  0.0265
12.265625000,  0.0442
12.281250000,  0.0320
12.296875000,  0.0390
12.312500000, -0.2357
12.328125000,  0.0066
12.343750000,  1.5953
12.359375000, -0.0589
12.375000000, -0.1620
12.390625000, -0.1607
12.406250000, -0.1059
12.421875000, -0.0739
12.437500000, -0.0769
12.453125000, -0.0672
12.468750000, -0.0317
12.484375000, -0.0062
12.500000000,  0.0086
12.515625000,  0.0298
12.531250000,  0.0703
12.546875000,  0.1072
12.562500000,  0.1212
12.578125000,  0.1223
12.593750000,  0.0842
12.609375000, -0.0137
12.625000000, -0.0733
12.640625000, -0.1392
12.656250000, -0.1600
12.671875000, -0.1421
12.687500000, -0.1106
12.703125000, -0.0969
12.718750000, -0.0871
12.734375000, -0.0650
12.750000000, -0.0840
12.765625000, -0.0471
12.781250000, -0.0145
12.796875000, -0.0370
12.812500000, -0.0376
12.828125000, -0.0178
12.843750000, -0.0073
12.859375000, -0.0284
12.875000000, -0.0108
12.890625000, -0.0145
12.906250000, -0.0349
12.921875000,  0.0405
12.937500000,  0.0563
12.953125000,  0.0331
12.968750000,  0.0177
12.984375000,  0.0486
13.000000000,  0.0276
13.015625000,  0.0121
13.031250000, -0.2337
13.046875000,  0.0258
13.062500000,  1.5816
13.078125000, -0.0935
13.093750000, -0.1611
13.109375000, -0.1867
13.125000000, -0.1199
13.140625000, -0.1001
13.156250000, -0.0992
13.171875000, -0.0636
13.187500000, -0.0354
13.203125000, -0.0080
13.218750000, -0.0209
13.234375000,  0.0218
13.250000000,  0.0542
13.265625000,  0.1067
13.281250000,  0.1313
13.296875000,  0.1295
13.312500000,  0.0592
13.328125000,  0.0013
13.343750000, -0.0842
13.359375000, -0.1241
13.375000000, -0.1417
13.390625000, -0.1282
13.406250000, -0.1070
13.421875000, -0.0889
13.437500000, -0.0979
13.453125000, -0.0722
13.468750000, -0.0548
13.484375000, -0.0274
13.500000000, -0.0300
13.515625000, -0.0429
13.531250000, -0.0322
13.546875000, -0.0083
13.562500000, -0.0116
13.578125000, -0.0036
13.593750000, -0.0187
13.609375000, -0.0362
13.625000000, -0.0181
13.640625000,  0.1018
13.656250000,  0.0731
13.671875000,  0.0192
13.687500000,  0.0234
13.703125000,  0.0354
13.718750000,  0.0128
13.734375000, -0.0238
13.750000000, -0.2618
13.765625000,  0.5960
13.781250000,  1.0369
13.796875000, -0.1868
13.812500000, -0.2024
13.828125000, -0.1905
13.843750000, -0.1538
13.859375000, -0.1421
13.875000000, -0.1183
13.890625000, -0.1121
13.906250000, -0.0738
13.921875000, -0.0496
13.937500000, -0.0257
13.953125000, -0.0304
13.968750000,  0.0048
13.984375000,  0.0309
14.000000000,  0.0360
14.015625000,  0.0120
14.031250000, -0.0154
14.046875000, -0.0311
14.062500000, -0.0424
14.078125000, -0.0652
14.093750000, -0.0747
14.109375000, -0.0640
14.125000000, -0.0458
14.140625000, -0.0334
14.156250000, -0.0433
14.171875000, -0.0334
14.187500000, -0.0148
14.203125000,  0.0118
14.218750000,  0.0069
14.234375000, -0.0113
14.250000000,  0.0020
14.265625000,  0.0092
14.281250000,  0.0175
14.296875000,  0.0159
14.312500000, -0.0076
14.328125000,  0.0138
14.343750000,  0.0045
14.359375000,  0.0971
14.375000000,  0.0998
14.390625000,  0.0777
14.406250000,  0.0277
14.421875000,  0.0357
14.437500000,  0.0167
14.453125000, -0.0097
14.468750000, -0.1855
14.484375000, -0.1739
14.500000000,  1.8646
14.515625000,  0.4285
14.531250000, -0.0645
14.546875000, -0.2577
14.562500000, -0.2621
14.578125000, -0.2442
14.593750000, -0.2250
14.609375000, -0.1963
14.625000000, -0.1584
14.640625000, -0.1485
14.656250000, -0.1281
14.671875000, -0.1143
14.687500000, -0.0693
14.703125000, -0.0770
14.718750000, -0.0645
14.734375000, -0.0602
14.750000000, -0.0583
14.765625000, -0.0110
14.781250000, -0.0189
14.796875000, -0.0424
14.812500000, -0.0452
14.828125000, -0.0373
14.843750000, -0.0276
14.859375000, -0.0232
14.875000000, -0.0462
14.890625000, -0.0308
14.906250000,  0.0052
14.921875000,  0.0047
14.937500000,  0.0085
14.953125000, -0.0017
14.968750000,  0.0132
14.984375000,  0.0276
15.000000000,  0.0291
15.015625000,  0.0137
15.031250000,  0.0133
15.046875000,  0.0461
15.062500000,  0.0424
15.078125000,  0.0166
15.093750000,  0.0038
15.109375000, -0.0011
15.125000000,  0.0954
15.140625000,  0.1084
15.156250000,  0.0595
15.171875000,  0.0034
15.187500000,  0.0086
15.203125000,  0.0095
15.218750000, -0.0003
15.234375000, -0.3041
15.250000000,  0.1086
15.265625000,  1.8723
15.281250000,  0.1452
15.296875000, -0.1494
15.312500000, -0.2856
15.328125000, -0.2755
15.343750000, -0.2244
15.359375000, -0.1998
15.375000000, -0.1850
15.390625000, -0.1560
15.406250000, -0.1236
15.421875000, -0.0905
15.437500000, -0.0870
15.453125000, -0.0710
15.468750000, -0.0332
15.484375000, -0.0299
15.500000000, -0.0192
15.515625000, -0.0265
15.531250000, -0.0256
15.546875000, -0.0392
15.562500000, -0.0500
15.578125000, -0.0497
15.593750000, -0.0618
15.609375000, -0.0457
15.625000000, -0.0323
15.640625000, -0.0221
15.656250000, -0.0237
15.671875000, -0.0264
15.687500000, -0.0027
15.703125000,  0.0222
15.718750000,  0.0035
15.734375000,  0.0158
15.750000000,  0.0147
15.765625000,  0.0314
15.781250000,  0.0464
15.796875000,  0.0106
15.812500000,  0.0273
15.828125000,  0.0429
15.843750000,  0.0629
15.859375000,  0.0245
15.875000000, -0.0089
15.890625000,  0.0834
15.906250000,  0.1073
15.921875000,  0.0995
15.937500000,  0.0363
15.953125000,  0.0098
15.968750000,  0.0250
15.984375000,  0.0193
16.000000000, -0.2977
16.015625000,  0.1368
16.031250000,  1.8096
16.046875000,  0.1428
16.062500000, -0.1111
16.078125000, -0.2338
16.093750000, -0.2470
16.109375000, -0.2000
16.125000000, -0.1715
16.140625000, -0.1465
16.156250000, -0.1364
16.171875000, -0.1170
16.187500000, -0.0876
16.203125000, -0.0490
16.218750000, -0.0301
16.234375000, -0.0313
16.250000000, -0.0227
16.265625000, -0.0137
16.281250000, -0.0143
16.296875000, -0.0447
16.312500000, -0.0528
16.328125000, -0.0595
16.343750000, -0.0604
16.359375000, -0.0604
16.375000000, -0.0764
16.390625000, -0.0489
16.406250000, -0.0410
16.421875000, -0.0228
16.437500000, -0.0287
16.453125000, -0.0349
16.468750000,  0.0017
16.484375000,  0.0109
16.500000000,  0.0230
16.515625000, -0.0017
16.531250000,  0.0025
16.546875000,  0.0323
16.562500000,  0.0413
16.578125000,  0.0296
16.593750000,  0.0132
16.609375000,  0.0261
16.625000000,  0.0076
16.640625000,  0.0403
16.656250000,  0.0771
16.671875000,  0.0794
16.687500000,  0.0218
16.703125000,  0.0392
16.718750000,  0.0108
16.734375000, -0.0021
16.750000000, -0.2416
16.765625000, -0.1375
16.781250000,  1.9251
16.796875000,  0.2865
16.812500000, -0.0971
16.828125000, -0.2316
16.843750000, -0.2193
16.859375000, -0.2051
16.875000000, -0.1860
16.890625000, -0.1559
16.906250000, -0.1130
16.921875000, -0.0903
16.937500000, -0.0928
16.953125000, -0.0667
16.968750000, -0.0375
16.984375000, -0.0197
17.000000000, -0.0342
17.015625000, -0.0338
17.031250000, -0.0252
17.046875000, -0.0197
17.062500000, -0.0478
17.078125000, -0.0789
17.093750000, -0.0816
17.109375000, -0.0740
17.125000000, -0.0414
17.140625000, -0.0411
17.156250000, -0.0340
17.171875000, -0.0290
17.187500000,  0.0205
17.203125000,  0.0245
17.218750000,  0.0275
17.234375000,  0.0139
17.250000000,  0.0287
17.265625000,  0.0304
17.281250000,  0.0301
17.296875000,  0.0079
17.312500000,  0.0050
17.328125000,  0.0111
17.343750000,  0.0236
17.359375000,  0.0169
17.375000000, -0.0042
17.390625000, -0.0260
17.406250000,  0.0160
17.421875000,  0.0920
17.437500000,  0.0826
17.453125000,  0.0168
17.468750000,  0.0150
17.484375000,  0.0217
17.500000000,  0.0029
17.515625000, -0.2077
17.531250000, -0.2362
17.546875000,  1.7934
17.562500000,  0.3582
17.578125000, -0.1117
17.593750000, -0.2342
17.609375000, -0.2471
17.625000000, -0.2098
17.640625000, -0.1843
17.656250000, -0.1822
17.671875000, -0.1561
17.687500000, -0.1142
17.703125000, -0.0869
17.718750000, -0.0844
17.734375000, -0.0588
17.750000000, -0.0414
17.765625000, -0.0257
17.781250000, -0.0375
17.796875000, -0.0293
17.812500000, -0.0561
17.828125000, -0.0531
17.843750000, -0.0748
17.859375000, -0.0839
17.875000000, -0.0879
17.890625000, -0.0563
17.906250000, -0.0430
17.921875000, -0.0404
17.937500000, -0.0336
17.953125000, -0.0367
17.968750000, -0.0141
17.984375000,  0.0044
18.000000000,  0.0171
18.015625000, -0.0078
18.031250000, -0.0086
18.046875000,  0.0162
18.062500000,  0.0169
18.078125000,  0.0117
18.093750000,  0.0069
18.109375000,  0.0142
18.125000000,  0.0236
18.140625000, -0.0090
18.156250000,  0.0521
18.171875000,  0.0969
18.187500000,  0.0834
18.203125000,  0.0409
18.218750000,  0.0231
18.234375000,  0.0211
18.250000000,  0.0292
18.265625000, -0.2700
18.281250000,  0.1910
18.296875000,  1.6023
18.312500000, -0.0223
18.328125000, -0.1107
18.343750000, -0.1548
18.359375000, -0.1451
18.375000000, -0.1472
18.390625000, -0.1146
18.406250000, -0.0836
18.421875000, -0.0550
18.437500000, -0.0564
18.453125000, -0.0167
18.468750000,  0.0059
18.484375000,  0.0482
18.500000000,  0.0435
18.515625000,  0.0444
18.531250000,  0.0504
18.546875000,  0.0579
18.562500000, -0.0306
18.578125000, -0.0697
18.593750000, -0.1223
18.609375000, -0.1008
18.625000000, -0.0914
18.640625000, -0.0686
18.656250000, -0.0762
18.671875000, -0.0387
18.687500000, -0.0159
18.703125000, -0.0161
18.718750000, -0.0145
18.734375000, -0.0238
18.750000000, -0.0088
18.765625000,  0.0142
18.781250000,  0.0039
18.796875000,  0.0002
18.812500000, -0.0057
18.828125000,  0.0105
18.843750000, -0.0227
18.859375000,  0.0411
18.875000000,  0.0547
18.890625000,  0.0510
18.906250000,  0.0242
18.921875000,  0.0239
18.937500000,  0.0005
18.953125000,  0.0066
18.968750000, -0.2538
18.984375000,  0.1922
19.000000000,  1.4754
19.015625000, -0.1304
19.031250000, -0.1840
19.046875000, -0.1354
19.062500000, -0.1167
19.078125000, -0.0987
19.093750000, -0.0896
19.109375000, -0.0629
19.125000000, -0.0338
19.140625000, -0.0178
19.156250000, -0.0027
19.171875000,  0.0299
19.187500000,  0.0805
19.203125000,  0.0969
19.218750000,  0.1088
19.234375000,  0.0965
19.250000000,  0.0563
19.265625000, -0.0321
19.281250000, -0.0948
19.296875000, -0.1372
19.312500000, -0.1345
19.328125000, -0.1186
19.343750000, -0.0965
19.359375000, -0.0940
19.375000000, -0.0890
19.390625000, -0.0577
19.406250000, -0.0414
19.421875000, -0.0523
19.437500000, -0.0442
19.453125000, -0.0454
19.468750000, -0.0282
19.484375000, -0.0336
19.500000000, -0.0355
19.515625000, -0.0633
19.531250000,  0.0360
19.546875000,  0.0597
19.562500000,  0.0381
19.578125000, -0.0059
19.593750000, -0.0050
19.609375000,  0.0084
19.625000000,  0.0024
19.640625000, -0.2394
19.656250000, -0.0039
19.671875000,  1.5390
19.687500000, -0.0829
19.703125000, -0.1882
19.718750000, -0.1701
19.734375000, -0.1255
19.750000000, -0.1063
19.765625000, -0.0545
19.781250000, -0.0391
19.796875000, -0.0491
19.812500000, -0.0106
19.828125000,  0.0122
19.843750000,  0.0536
19.859375000,  0.0571
19.875000000,  0.0787
19.890625000,  0.1038
19.906250000,  0.1251
19.921875000,  0.0790
19.937500000, -0.0225
19.953125000, -0.1090
19.968750000, -0.1202
19.984375000, -0.1270
20.000000000, -0.1160
20.015625000, -0.1187
20.031250000, -0.0986
20.046875000, -0.0422
20.062500000, -0.0561
20.078125000, -0.0455
20.093750000, -0.0583
20.109375000, -0.0153
20.125000000, -0.0236
20.140625000, -0.0286
20.156250000, -0.0395
20.171875000, -0.0179
20.187500000,  0.0795
20.203125000,  0.0430
20.218750000,  0.0065
20.234375000, -0.0124
20.250000000, -0.0005
20.265625000,  0.0016
20.281250000, -0.0673
20.296875000, -0.2223
20.312500000,  0.7979
20.328125000,  0.4975
20.343750000, -0.2660
20.359375000, -0.2018
20.375000000, -0.1412
20.390625000, -0.1023
20.406250000, -0.0600
20.421875000, -0.0579
20.437500000, -0.0512
20.453125000, -0.0277
20.468750000,  0.0221
20.484375000,  0.0253
20.500000000,  0.0501
20.515625000,  0.0971
20.531250000,  0.1198
20.546875000,  0.1439
20.562500000,  0.1189
20.578125000,  0.0416
20.593750000, -0.0482
20.609375000, -0.1075
20.625000000, -0.1249
20.640625000, -0.1280
20.656250000, -0.1509
20.671875000, -0.0924
20.687500000, -0.0854
20.703125000, -0.0752
20.718750000, -0.0642
20.734375000, -0.0416
20.750000000, -0.0218
20.765625000, -0.0253
20.781250000, -0.0274
20.796875000, -0.0226
20.812500000,  0.0771
20.828125000,  0.0651
20.843750000,  0.0376
20.859375000, -0.0217
20.875000000, -0.0098
20.890625000, -0.0054
20.906250000, -0.0604
20.921875000, -0.2201
20.937500000,  0.6925
20.953125000,  0.6541
20.968750000, -0.3138
20.984375000, -0.1723
21.000000000, -0.1348
21.015625000, -0.1041
21.031250000, -0.0727
21.046875000, -0.0263
21.062500000, -0.0291
21.078125000, -0.0360
21.093750000, -0.0288
21.109375000,  0.0373
21.125000000,  0.0797
21.140625000,  0.1010
21.156250000,  0.1168
21.171875000,  0.1182
21.187500000,  0.1147
21.203125000,  0.0250
21.218750000, -0.0847
21.234375000, -0.1368
21.250000000, -0.1596
21.265625000, -0.1516
21.281250000, -0.1260
21.296875000, -0.1383
21.312500000, -0.0757
21.328125000, -0.0724
21.343750000,  0.0031
21.359375000, -0.0641
21.375000000, -0.0452
21.390625000, -0.0584
21.406250000, -0.0032
21.421875000,  0.0446
21.437500000,  0.0630
21.453125000, -0.0250
21.468750000,  0.0072
21.484375000, -0.0206
21.500000000, -0.0325
21.515625000, -0.0258
21.531250000, -0.2118
21.546875000, -0.1240
21.562500000,  1.4564
21.578125000, -0.0647
21.593750000, -0.2713
21.609375000, -0.1706
21.625000000, -0.0762
21.640625000, -0.0867
21.656250000, -0.0697
21.671875000, -0.0345
21.687500000,  0.0233
21.703125000,  0.0053
21.718750000,  0.0269
21.734375000,  0.0142
21.750000000,  0.0923
21.765625000,  0.1109
21.781250000,  0.1058
21.796875000,  0.0819
21.812500000,  0.0606
21.828125000, -0.0138
21.843750000, -0.0593
21.859375000, -0.0832
21.875000000, -0.1053
21.890625000, -0.0853
21.906250000, -0.0632
21.921875000, -0.0484
21.937500000, -0.0473
21.953125000, -0.0265
21.968750000,  0.0264
21.984375000,  0.0086
22.000000000,  0.0115
22.015625000,  0.0045
22.031250000,  0.0091
22.046875000,  0.0104
22.062500000, -0.0111
22.078125000, -0.0383
22.093750000,  0.1021
22.109375000,  0.0740
22.125000000,  0.0466
22.140625000,  0.0053
22.156250000, -0.0125
22.171875000,  0.0018
22.187500000,  0.0093
22.203125000, -0.2188
22.218750000, -0.0362
22.234375000,  1.4111
22.250000000, -0.1793
22.265625000, -0.2126
22.281250000, -0.1716
22.296875000, -0.1145
22.312500000, -0.0956
22.328125000, -0.0597
22.343750000, -0.0404
22.359375000, -0.0211
22.375000000, -0.0155
22.390625000,  0.0106
22.406250000,  0.0321
22.421875000,  0.0314
22.437500000,  0.0589
22.453125000,  0.0584
22.468750000,  0.0704
22.484375000,  0.0367
22.500000000, -0.0367
22.515625000, -0.0729
22.531250000, -0.0828
22.546875000, -0.0763
22.562500000, -0.0734
22.578125000, -0.0755
22.593750000, -0.0606
22.609375000, -0.0217
22.625000000, -0.0322
22.640625000, -0.0205
22.656250000, -0.0515
22.671875000, -0.0295
22.687500000, -0.0097
22.703125000, -0.0090
22.718750000, -0.0371
22.734375000, -0.0169
22.750000000,  0.0036
22.765625000,  0.0122
22.781250000,  0.0129
22.796875000, -0.0023
22.812500000,  0.0058
22.828125000,  0.0236
22.843750000,  0.0220
22.859375000, -0.0073
22.875000000, -0.0100
22.890625000,  0.0148
22.906250000,  0.0131
22.921875000,  0.0013
22.937500000,  0.0028
22.953125000,  0.0122
22.968750000,  0.0292
22.984375000,  0.0306
23.000000000,  0.0216
23.015625000,  0.0070
23.031250000,  0.0224
23.046875000,  0.0282
23.062500000,  0.0285
23.078125000,  0.0009
23.093750000, -0.0488
23.109375000,  0.0650
23.125000000,  0.0499
23.140625000,  0.0202
23.156250000,  0.0137
23.171875000,  0.0253
23.187500000, -0.0227
23.203125000, -0.2214
23.218750000,  0.7310
23.234375000,  0.8480
23.250000000, -0.1595
23.265625000, -0.1825
23.281250000, -0.2323
23.296875000, -0.2146
23.312500000, -0.1741
23.328125000, -0.1679
23.343750000, -0.1454
23.359375000, -0.1326
23.375000000, -0.1162
23.390625000, -0.0953
23.406250000, -0.0750
23.421875000, -0.0756
23.437500000, -0.0819
23.453125000, -0.0789
23.468750000, -0.0580
23.484375000, -0.0454
23.500000000, -0.0496
23.515625000, -0.0466
23.531250000, -0.0240
23.546875000, -0.0130
23.562500000, -0.0101
23.578125000, -0.0284
23.593750000, -0.0066
23.609375000,  0.0144
23.625000000,  0.0203
23.640625000,  0.0049
23.656250000, -0.0127
23.671875000,  0.0034
23.687500000,  0.0333
23.703125000,  0.0203
23.718750000,  0.0126
23.734375000, -0.0000
23.750000000,  0.0288
23.765625000,  0.0364
23.781250000,  0.0307
23.796875000,  0.0027
23.812500000,  0.0339
23.828125000,  0.0421
23.843750000,  0.0403
23.859375000,  0.0187
23.875000000,  0.0197
23.890625000,  0.0354
23.906250000,  0.0229
23.921875000,  0.0116
23.937500000,  0.0006
23.953125000,  0.0173
23.968750000,  0.0258
23.984375000,  0.0305
24.000000000,  0.0162
24.015625000,  0.0064
24.031250000, -0.0126
24.046875000, -0.0188
24.062500000,  0.0458
24.078125000,  0.0283
24.093750000,  0.0181
24.109375000,  0.0407
24.125000000,  0.0265
24.140625000, -0.1492
24.156250000, -0.1596
24.171875000,  1.7476
24.187500000,  0.4508
24.203125000, -0.0366
24.218750000, -0.2672
24.234375000, -0.2797
24.250000000, -0.2503
24.265625000, -0.2268
24.281250000, -0.2370
24.296875000, -0.2138
24.312500000, -0.1900
24.328125000, -0.1598
24.343750000, -0.1479
24.359375000, -0.1663
24.375000000, -0.1547
24.390625000, -0.1375
24.406250000, -0.1410
24.421875000, -0.0944
24.437500000, -0.0487
24.453125000, -0.0027
24.468750000,  0.0095
24.484375000,  0.0248
24.500000000,  0.0057
24.515625000,  0.0159
24.531250000,  0.0247
24.546875000,  0.0346
24.562500000,  0.0210
24.578125000,  0.0095
24.593750000,  0.0311
24.609375000,  0.0467
24.625000000,  0.0519
24.640625000,  0.0365
24.656250000,  0.0489
24.671875000,  0.0396
24.687500000,  0.0612
24.703125000,  0.0340
24.718750000,  0.0309
24.734375000,  0.0271
24.750000000,  0.0583
24.765625000,  0.0554
24.781250000,  0.0439
24.796875000,  0.0298
24.812500000,  0.0268
24.828125000,  0.0461
24.843750000,  0.0513
24.859375000,  0.0418
24.875000000,  0.0330
24.890625000,  0.0323
24.906250000,  0.0449
24.921875000,  0.0173
24.937500000, -0.0017
24.953125000,  0.0041
24.968750000,  0.1153
24.984375000,  0.0744
25.000000000,  0.0355
25.015625000,  0.0325
25.031250000, -0.0044
25.046875000,  0.0156
25.062500000, -0.0437
25.078125000, -0.2813
25.093750000,  0.8967
25.109375000,  1.3453
25.125000000,  0.1212
25.140625000, -0.2526
25.156250000, -0.3627
25.171875000, -0.3294
25.187500000, -0.2941
25.203125000, -0.2736
25.218750000, -0.2444
25.234375000, -0.2370
25.250000000, -0.1969
25.265625000, -0.1908
25.281250000, -0.1715
25.296875000, -0.1622
25.312500000, -0.1502
25.328125000, -0.1184
25.343750000, -0.0931
25.359375000, -0.0958
25.375000000, -0.0312
25.390625000,  0.0122
25.406250000, -0.0019
25.421875000, -0.0189
25.437500000, -0.0310
25.453125000, -0.0045
25.468750000, -0.0115
25.484375000,  0.0040
25.500000000, -0.0205
25.515625000, -0.0018
25.531250000,  0.0169
25.546875000,  0.0383
25.562500000,  0.0419
25.578125000,  0.0287
25.593750000,  0.0487
25.609375000,  0.0451
25.625000000,  0.0608
25.640625000,  0.0338
25.656250000,  0.0279
25.671875000,  0.0593
25.687500000,  0.0647
25.703125000,  0.0444
25.718750000,  0.0305
25.734375000,  0.0424
25.750000000,  0.0471
25.765625000,  0.0714
25.781250000,  0.0245
25.796875000,  0.0135
25.812500000,  0.0406
25.828125000,  0.0329
25.843750000,  0.0104
25.859375000,  0.0924
25.875000000,  0.0804
25.890625000,  0.0643
25.906250000,  0.0341
25.921875000,  0.0057
25.937500000, -0.0209
25.953125000, -0.0171
25.968750000, -0.2887
25.984375000,  0.6261
26.000000000,  1.4430
26.015625000,  0.0666
26.031250000, -0.2045
26.046875000, -0.2909
26.062500000, -0.3224
26.078125000, -0.2796
26.093750000, -0.2524
26.109375000, -0.1997
26.125000000, -0.1934
26.140625000, -0.1739
26.156250000, -0.1603
26.171875000, -0.1238
26.187500000, -0.0812
26.203125000, -0.0920
26.218750000, -0.0842
26.234375000, -0.0720
26.250000000, -0.0340
26.265625000, -0.0392
26.281250000, -0.0712
26.296875000, -0.0734
26.312500000, -0.0429
26.328125000, -0.0555
26.343750000, -0.0401
26.359375000, -0.0402
26.375000000, -0.0284
26.390625000, -0.0163
26.406250000, -0.0049
26.421875000, -0.0165
26.437500000, -0.0047
26.453125000,  0.0128
26.468750000,  0.0311
26.484375000, -0.0044
26.500000000,  0.0160
26.515625000,  0.0209
26.531250000,  0.0461
26.546875000,  0.0445
26.562500000,  0.0443
26.578125000,  0.0256
26.593750000,  0.0369
26.609375000,  0.0440
26.625000000,  0.0613
26.640625000,  0.0366
26.656250000,  0.0369
26.671875000,  0.0348
26.687500000,  0.0378
26.703125000,  0.0314
26.718750000,  0.0940
26.734375000,  0.0846
26.750000000,  0.0479
26.765625000,  0.0517
26.781250000,  0.0195
26.796875000,  0.0103
26.812500000, -0.2391
26.828125000, -0.0093
26.843750000,  1.9345
26.859375000,  0.2351
26.875000000, -0.0657
26.890625000, -0.2408
26.906250000, -0.2270
26.921875000, -0.2292
26.937500000, -0.2072
26.953125000, -0.1752
26.968750000, -0.1287
26.984375000, -0.1359
27.000000000, -0.1185
27.015625000, -0.0849
27.031250000, -0.0469
27.046875000, -0.0437
27.062500000, -0.0488
27.078125000, -0.0528
27.093750000, -0.0396
27.109375000, -0.0182
27.125000000, -0.0490
27.140625000, -0.0880
27.156250000, -0.0730
27.171875000, -0.0602
27.187500000, -0.0393
27.203125000, -0.0391
27.218750000, -0.0348
27.234375000, -0.0275
27.250000000, -0.0074
27.265625000, -0.0094
27.281250000, -0.0250
27.296875000, -0.0186
27.312500000,  0.0052
27.328125000,  0.0114
27.343750000, -0.0087
27.359375000, -0.0268
27.375000000,  0.0097
27.390625000,  0.0153
27.406250000,  0.0164
27.421875000,  0.0165
27.437500000, -0.0003
27.453125000,  0.0076
27.468750000,  0.0073
27.484375000, -0.0217
27.500000000,  0.0044
27.515625000,  0.0819
27.531250000,  0.1272
27.546875000,  0.0417
27.562500000,  0.0214
27.578125000,  0.0150
27.593750000,  0.0218
27.609375000, -0.1588
27.625000000, -0.2198
27.640625000,  1.7254
27.656250000,  0.4105
27.671875000, -0.0729
27.687500000, -0.2181
27.703125000, -0.2234
27.718750000, -0.2324
27.734375000, -0.1929
27.750000000, -0.1570
27.765625000, -0.1459
27.781250000, -0.1484
27.796875000, -0.1080
27.812500000, -0.0667
27.828125000, -0.0473
27.843750000, -0.0419
27.859375000, -0.0463
27.875000000, -0.0438
27.890625000, -0.0286
27.906250000, -0.0394
27.921875000, -0.0531
27.937500000, -0.0703
27.953125000, -0.0614
27.968750000, -0.0255
27.984375000, -0.0516
28.000000000, -0.0328
28.015625000, -0.0292
28.031250000, -0.0007
28.046875000,  0.0013
28.062500000, -0.0094
28.078125000, -0.0013
28.093750000, -0.0072
28.109375000,  0.0170
28.125000000,  0.0113
28.140625000,  0.0013
28.156250000, -0.0173
28.171875000,  0.0181
28.187500000,  0.0212
28.203125000,  0.0179
28.218750000,  0.0170
28.234375000,  0.0312
28.250000000,  0.0207
28.265625000,  0.0099
28.281250000,  0.0082
28.296875000,  0.0968
28.312500000,  0.1153
28.328125000,  0.0612
28.343750000,  0.0155
28.359375000, -0.0006
28.375000000,  0.0146
28.390625000, -0.1065
28.406250000, -0.2432
28.421875000,  1.4325
28.437500000,  0.5330
28.453125000, -0.0685
28.468750000, -0.1845
28.484375000, -0.2046
28.500000000, -0.2177
28.515625000, -0.1924
28.531250000, -0.1475
28.546875000, -0.1228
28.562500000, -0.1144
28.578125000, -0.0961
28.593750000, -0.0543
28.609375000, -0.0259
28.625000000, -0.0255
28.640625000, -0.0655
28.656250000, -0.0518
28.671875000, -0.0416
28.687500000, -0.0366
28.703125000, -0.0582
28.718750000, -0.0739
28.734375000, -0.0712
28.750000000, -0.0392
28.765625000, -0.0432
28.781250000, -0.0411
28.796875000, -0.0319
28.812500000, -0.0026
28.828125000,  0.0175
28.843750000, -0.0195
28.859375000, -0.0144
28.875000000, -0.0003
28.890625000,  0.0179
28.906250000,  0.0107
28.921875000,  0.0024
28.937500000,  0.0022
28.953125000,  0.0118
28.968750000,  0.0310
28.984375000,  0.0169
29.000000000,  0.0185
29.015625000,  0.0230
29.031250000, -0.0071
29.046875000,  0.0626
29.062500000,  0.0722
29.078125000,  0.0749
29.093750000,  0.0341
29.109375000,  0.0536
29.125000000,  0.0406
29.140625000,  0.0054
29.156250000, -0.3118
29.171875000,  0.4283
29.187500000,  1.4144
29.203125000, -0.0026
29.218750000, -0.1349
29.234375000, -0.2375
29.250000000, -0.2159
29.265625000, -0.1878
29.281250000, -0.1751
29.296875000, -0.1599
29.312500000, -0.1008
29.328125000, -0.1070
29.343750000, -0.0907
29.359375000, -0.0737
29.375000000, -0.0458
29.390625000, -0.0238
29.406250000, -0.0399
29.421875000, -0.0874
29.437500000, -0.0600
29.453125000, -0.0514
29.468750000, -0.0422
29.484375000, -0.0618
29.500000000, -0.0698
29.515625000, -0.0625
29.531250000, -0.0252
29.546875000, -0.0304
29.562500000, -0.0271
29.578125000, -0.0229
29.593750000, -0.0114
29.609375000,  0.0015
29.625000000,  0.0026
29.640625000, -0.0035
29.656250000, -0.0007
29.671875000,  0.0036
29.687500000,  0.0167
29.703125000,  0.0088
29.718750000,  0.0066
29.734375000,  0.0206
29.750000000,  0.0232
29.765625000, -0.0079
29.781250000,  0.0014
29.796875000,  0.0796
29.812500000,  0.1164
29.828125000,  0.0354
29.843750000,  0.0417
29.859375000,  0.0194
29.875000000,  0.0294
29.890625000, -0.2092
29.906250000, -0.1210
29.921875000,  1.8125
29.937500000,  0.2310
29.953125000, -0.0877
29.968750000, -0.1905
29.984375000, -0.2045
30.000000000, -0.1990
30.015625000, -0.1612
30.031250000, -0.1430
30.046875000, -0.1151
30.062500000, -0.1081
30.078125000, -0.0821
30.093750000, -0.0473
30.109375000, -0.0510
30.125000000, -0.0202
30.140625000, -0.0555
30.156250000, -0.0517
30.171875000, -0.0350
30.187500000, -0.0329
30.203125000, -0.0428
30.218750000, -0.0963
30.234375000, -0.0592
30.250000000, -0.0506
30.265625000, -0.0440
30.281250000, -0.0260
30.296875000, -0.0243
30.312500000, -0.0029
30.328125000,  0.0078
30.343750000,  0.0014
30.359375000, -0.0008
30.375000000,  0.0285
30.390625000,  0.0066
30.406250000,  0.0160
30.421875000,  0.0020
30.437500000,  0.0088
30.453125000,  0.0251
30.468750000,  0.0344
30.484375000, -0.0314
30.500000000,  0.0566
30.515625000,  0.0881
30.531250000,  0.0664
30.546875000,  0.0520
30.562500000,  0.0059
30.578125000,  0.0228
30.593750000,  0.0123
30.609375000, -0.2555
30.625000000,  0.6324
30.640625000,  1.0471
30.656250000, -0.1414
30.671875000, -0.1525
30.687500000, -0.1665
30.703125000, -0.1761
30.718750000, -0.1522
30.734375000, -0.1148
30.750000000, -0.1083
30.765625000, -0.0877
30.781250000, -0.0815
30.796875000, -0.0333
30.812500000, -0.0027
30.828125000,  0.0292
30.843750000, -0.0014
30.859375000, -0.0071
30.875000000, -0.0019
30.890625000, -0.0018
30.906250000, -0.0398
30.921875000, -0.0828
30.937500000, -0.0849
30.953125000, -0.0562
30.968750000, -0.0788
30.984375000, -0.0631
31.000000000, -0.0407
31.015625000, -0.0330
31.031250000, -0.0105
31.046875000, -0.0005
31.062500000, -0.0162
31.078125000, -0.0278
31.093750000,  0.0018
31.109375000,  0.0131
31.125000000,  0.0050
31.140625000, -0.0244
31.156250000, -0.0388
31.171875000, -0.0254
31.187500000,  0.0908
31.203125000,  0.0527
31.218750000,  0.0149
31.234375000,  0.0222
31.250000000,  0.0281
31.265625000, -0.0015
31.281250000, -0.1840
31.296875000, -0.1778
31.312500000,  1.5469
31.328125000,  0.1718
31.343750000, -0.1814
31.359375000, -0.1986
31.375000000, -0.1535
31.390625000, -0.1338
31.406250000, -0.1035
31.421875000, -0.1007
31.437500000, -0.0810
31.453125000, -0.0317
31.468750000, -0.0112
31.484375000,  0.0061
31.500000000,  0.0079
31.515625000,  0.0248
31.531250000,  0.0419
31.546875000,  0.0518
31.562500000,  0.0191
31.578125000, -0.0271
31.593750000, -0.0444
31.609375000, -0.0754
31.625000000, -0.0880
31.640625000, -0.0914
31.656250000, -0.0676
31.671875000, -0.0331
31.687500000, -0.0343
31.703125000, -0.0238
31.718750000, -0.0147
31.734375000, -0.0205
31.750000000,  0.0032
31.765625000, -0.0115
31.781250000, -0.0252
31.796875000, -0.0327
31.812500000,  0.0025
31.828125000,  0.0155
31.843750000,  0.0505
31.859375000,  0.0356
31.875000000,  0.0121
31.890625000,  0.0273
31.906250000, -0.0043
31.921875000,  0.0032
31.937500000, -0.1082
31.953125000, -0.2258
31.968750000,  1.1339
31.984375000,  0.4021
32.000000000, -0.2227
32.015625000, -0.2055
32.031250000, -0.1508
32.046875000, -0.1486
32.062500000, -0.1374
32.078125000, -0.1051
32.093750000, -0.0875
32.109375000, -0.0525
32.125000000, -0.0591
32.140625000, -0.0179
32.156250000,  0.0102
32.171875000,  0.0415
32.187500000,  0.0526
32.203125000,  0.0362
32.218750000,  0.0279
32.234375000, -0.0008
32.250000000, -0.0587
32.265625000, -0.0865
32.281250000, -0.1180
32.296875000, -0.0905
32.312500000, -0.0834
32.328125000, -0.0409
32.343750000, -0.0562
32.359375000, -0.0448
32.375000000, -0.0283
32.390625000,  0.0001
32.406250000, -0.0073
32.421875000, -0.0019
32.437500000, -0.0122
32.453125000,  0.0240
32.468750000,  0.1022
32.484375000,  0.0593
32.500000000,  0.0151
32.515625000,  0.0220
32.531250000,  0.0200
32.546875000,  0.0066
32.562500000, -0.0809
32.578125000, -0.2208
32.593750000,  0.9232
32.609375000,  0.4710
32.625000000, -0.2385
32.640625000, -0.1909
32.656250000, -0.1301
32.671875000, -0.0890
32.687500000, -0.0940
32.703125000, -0.0618
32.718750000, -0.0417
32.734375000, -0.0070
32.750000000,  0.0084
32.765625000,  0.0192
32.781250000,  0.0454
32.796875000,  0.0791
32.812500000,  0.0988
32.828125000,  0.0942
32.843750000,  0.0854
32.859375000,  0.0053
32.875000000, -0.0485
32.890625000, -0.0722
32.906250000, -0.0929
32.921875000, -0.1048
32.937500000, -0.0786
32.953125000, -0.0647
32.968750000, -0.0449
32.984375000, -0.0388
33.000000000, -0.0331
33.015625000, -0.0169
33.031250000, -0.0126
33.046875000, -0.0321
33.062500000, -0.0087
33.078125000,  0.0895
33.093750000,  0.0596
33.109375000,  0.0174
33.125000000, -0.0096
33.140625000, -0.0094
33.156250000, -0.0139
33.171875000, -0.0823
33.187500000, -0.2622
33.203125000,  0.7821
33.218750000,  0.5072
33.234375000, -0.2144
33.250000000, -0.1828
33.265625000, -0.1636
33.281250000, -0.1386
33.296875000, -0.1160
33.312500000, -0.0683
33.328125000, -0.0521
33.343750000, -0.0488
33.359375000, -0.0323
33.375000000,  0.0072
33.390625000,  0.0408
33.406250000,  0.0548
33.421875000,  0.0487
33.437500000,  0.0602
33.453125000,  0.0758
33.468750000, -0.0077
33.484375000, -0.0741
33.500000000, -0.0945
33.515625000, -0.0983
33.531250000, -0.0920
33.546875000, -0.0803
33.562500000, -0.0788
33.578125000, -0.0601
33.593750000, -0.0353
33.609375000, -0.0241
33.625000000, -0.0462
33.640625000, -0.0518
33.656250000, -0.0196
33.671875000,  0.1100
33.687500000,  0.0670
33.703125000, -0.0074
33.718750000, -0.0185
33.734375000, -0.0227
33.750000000, -0.0047
33.765625000, -0.0430
33.781250000, -0.2927
33.796875000,  0.2049
33.812500000,  1.2851
33.828125000, -0.1475
33.843750000, -0.1239
33.859375000, -0.1732
33.875000000, -0.1369
33.890625000, -0.0834
33.906250000, -0.1015
33.921875000, -0.0664
33.937500000, -0.0229
33.953125000, -0.0106
33.968750000,  0.0123
33.984375000,  0.0299
34.000000000,  0.0630
34.015625000,  0.1107
34.031250000,  0.1375
34.046875000,  0.0991
34.062500000,  0.0330
34.078125000, -0.0577
34.093750000, -0.0891
34.109375000, -0.1027
34.125000000, -0.1080
34.140625000, -0.1329
34.156250000, -0.0724
34.171875000, -0.0602
34.187500000, -0.0468
34.203125000, -0.0632
34.218750000, -0.0422
34.234375000,  0.0086
34.250000000, -0.0086
34.265625000,  0.0418
34.281250000,  0.0656
34.296875000,  0.0107
34.312500000, -0.0277
34.328125000,  0.0071
34.343750000, -0.0113
34.359375000, -0.0091
34.375000000, -0.2279
34.390625000, -0.0153
34.406250000,  1.4490
34.421875000, -0.0821
34.437500000, -0.1456
34.453125000, -0.1314
34.468750000, -0.1165
34.484375000, -0.1188
34.500000000, -0.1117
34.515625000, -0.0497
34.531250000, -0.0204
34.546875000, -0.0037
34.562500000,  0.0148
34.578125000,  0.0220
34.593750000,  0.0836
34.609375000,  0.1157
34.625000000,  0.1377
34.640625000,  0.0913
34.656250000,  0.0773
34.671875000, -0.0396
34.687500000, -0.1013
34.703125000, -0.1290
34.718750000, -0.1106
34.734375000, -0.1037
34.750000000, -0.0702
34.765625000, -0.0682
34.781250000, -0.0598
34.796875000, -0.0364
34.812500000, -0.0139
34.828125000, -0.0159
34.843750000, -0.0166
34.859375000,  0.0644
34.875000000,  0.1113
34.890625000,  0.0544
34.906250000,  0.0100
34.921875000, -0.0013
34.937500000,  0.0105
34.953125000,  0.0070
34.968750000, -0.2240
34.984375000, -0.0783
35.000000000,  1.5006
35.015625000, -0.0468
35.031250000, -0.1430
35.046875000, -0.1621
35.062500000, -0.1131
35.078125000, -0.0772
35.093750000, -0.0441
35.109375000, -0.0216
35.125000000, -0.0081
35.140625000,  0.0005
35.156250000,  0.0359
35.171875000,  0.0621
35.187500000,  0.0690
35.203125000,  0.1044
35.218750000,  0.1145
35.234375000,  0.1256
35.250000000,  0.0408
35.265625000, -0.0511
35.281250000, -0.0974
35.296875000, -0.1005
35.312500000, -0.0939
35.328125000, -0.0998
35.343750000, -0.0864
35.359375000, -0.0763
35.375000000, -0.0364
35.390625000, -0.0151
35.406250000, -0.0404
35.421875000, -0.0312
35.437500000, -0.0258
35.453125000, -0.0104
35.468750000, -0.0248
35.484375000, -0.0249
35.500000000, -0.0319
35.515625000, -0.0158
35.531250000,  0.0002
35.546875000, -0.0069
35.562500000,  0.0037
35.578125000, -0.0009
35.593750000,  0.0137
35.609375000,  0.0105
35.625000000,  0.0005
35.640625000,  0.0045
35.656250000,  0.0168
35.671875000,  0.0260
35.687500000,  0.0028
35.703125000,  0.0073
35.718750000,  0.0156
35.734375000,  0.0144
35.750000000, -0.0387
35.765625000,  0.0405
35.781250000,  0.0199
35.796875000,  0.0090
35.812500000,  0.0292
35.828125000,  0.0138
35.843750000, -0.1466
35.859375000, -0.1896
35.875000000,  1.5666
35.890625000,  0.2863
35.906250000, -0.0981
35.921875000, -0.2594
35.937500000, -0.2266
35.953125000, -0.2137
35.968750000, -0.1918
35.984375000, -0.1970
36.000000000, -0.1780
36.015625000, -0.1435
36.031250000, -0.1209
36.046875000, -0.1143
36.062500000, -0.1027
36.078125000, -0.0748
36.093750000, -0.0503
36.109375000, -0.0257
36.125000000, -0.0373
36.140625000, -0.0259
36.156250000, -0.0412
36.171875000, -0.0492
36.187500000, -0.0710
36.203125000, -0.0656
36.218750000, -0.0471
36.234375000, -0.0277
36.250000000, -0.0225
36.265625000, -0.0179
36.281250000, -0.0292
36.296875000, -0.0208
36.312500000, -0.0002
36.328125000, -0.0070
36.343750000, -0.0101
36.359375000,  0.0065
36.375000000,  0.0125
36.390625000,  0.0167
36.406250000,  0.0011
36.421875000,  0.0044
36.437500000,  0.0273
36.453125000,  0.0363
36.468750000,  0.0234
36.484375000,  0.0255
36.500000000,  0.0274
36.515625000,  0.0399
36.531250000,  0.0484
36.546875000,  0.0582
36.562500000,  0.0299
36.578125000,  0.0414
36.593750000,  0.0478
36.609375000,  0.0610
36.625000000,  0.0220
36.640625000,  0.0242
36.656250000,  0.0429
36.671875000,  0.0519
36.687500000, -0.0283
36.703125000,  0.0285
36.718750000,  0.0616
36.734375000,  0.0805
36.750000000,  0.0531
36.765625000,  0.0470
36.781250000,  0.0186
36.796875000, -0.2333
36.812500000,  0.1787
36.828125000,  1.9980
36.843750000,  0.1149
36.859375000, -0.1376
36.875000000, -0.3069
36.890625000, -0.2828
36.906250000, -0.2807
36.921875000, -0.2698
36.937500000, -0.2287
36.953125000, -0.2065
36.968750000, -0.2089
36.984375000, -0.1827
37.000000000, -0.1608
37.015625000, -0.1337
37.031250000, -0.1133
37.046875000, -0.0875
37.062500000, -0.0855
37.078125000, -0.0270
37.093750000,  0.0388
37.109375000,  0.0226
37.125000000, -0.0035
37.140625000, -0.0220
37.156250000, -0.0023
37.171875000, -0.0095
37.187500000, -0.0157
37.203125000, -0.0318
37.218750000, -0.0129
37.234375000,  0.0164
37.250000000,  0.0068
37.265625000,  0.0086
37.281250000,  0.0117
37.296875000,  0.0470
37.312500000,  0.0589
37.328125000,  0.0491
37.343750000,  0.0413
37.359375000,  0.0473
37.375000000,  0.0503
37.390625000,  0.0696
37.406250000,  0.0411
37.421875000,  0.0388
37.437500000,  0.0635
37.453125000,  0.0591
37.468750000,  0.0486
37.484375000,  0.0481
37.500000000,  0.0292
37.515625000,  0.0655
37.531250000,  0.0496
37.546875000,  0.0370
37.562500000,  0.0245
37.578125000,  0.0444
37.593750000,  0.0519
37.609375000,  0.0348
37.625000000,  0.0121
37.640625000,  0.0144
37.656250000,  0.0418
37.671875000,  0.0140
37.687500000, -0.0597
37.703125000,  0.0263
37.718750000,  0.0495
37.734375000,  0.0378
37.750000000,  0.0250
37.765625000,  0.0032
37.781250000,  0.0042
37.796875000, -0.2864
37.812500000,  0.1987
37.828125000,  1.9717
37.843750000,  0.1865
37.859375000, -0.1807
37.875000000, -0.3292
37.890625000, -0.3271
37.906250000, -0.3025
37.921875000, -0.2964
37.937500000, -0.2540
37.953125000, -0.2389
37.968750000, -0.2137
37.984375000, -0.1985
38.000000000, -0.1951
38.015625000, -0.1515
38.031250000, -0.1266
38.046875000, -0.1000
38.062500000, -0.0909
38.078125000, -0.0148
38.093750000, -0.0055
38.109375000, -0.0214
38.125000000, -0.0533
38.140625000, -0.0632
38.156250000, -0.0405
38.171875000, -0.0537
38.187500000, -0.0636
38.203125000, -0.0541
38.218750000, -0.0528
38.234375000, -0.0288
38.250000000, -0.0060
38.265625000, -0.0087
38.281250000,  0.0017
38.296875000,  0.0101
38.312500000,  0.0304
38.328125000,  0.0156
38.343750000,  0.0155
38.359375000,  0.0421
38.375000000,  0.0384
38.390625000,  0.0487
38.406250000,  0.0265
38.421875000,  0.0283
38.437500000,  0.0598
38.453125000,  0.0503
38.468750000,  0.0458
38.484375000,  0.0275
38.500000000,  0.0309
38.515625000,  0.0436
38.531250000,  0.0526
38.546875000,  0.0231
38.562500000,  0.0091
38.578125000,  0.0336
38.593750000,  0.0475
38.609375000,  0.0374
38.625000000,  0.0271
38.640625000,  0.0169
38.656250000,  0.0255
38.671875000, -0.0117
38.687500000,  0.0721
38.703125000,  0.0724
38.718750000,  0.0575
38.734375000,  0.0521
38.750000000,  0.0300
38.765625000,  0.0014
38.781250000, -0.0263
38.796875000, -0.3270
38.812500000,  0.6584
38.828125000,  1.4744
38.843750000,  0.0330
38.859375000, -0.2404
38.875000000, -0.3054
38.890625000, -0.3063
38.906250000, -0.2781
38.921875000, -0.2519
38.937500000, -0.2214
38.953125000, -0.1887
38.968750000, -0.1759
38.984375000, -0.1515
39.000000000, -0.1168
39.015625000, -0.0684
39.031250000, -0.0300
39.046875000, -0.0229
39.062500000,  0.0011
39.078125000,  0.0254
39.093750000,  0.0041
39.109375000, -0.0616
39.125000000, -0.0987
39.140625000, -0.0764
39.156250000, -0.0722
39.171875000, -0.0653
39.187500000, -0.0631
39.203125000, -0.0585
39.218750000, -0.0323
39.234375000, -0.0172
39.250000000, -0.0160
39.265625000, -0.0108
39.281250000, -0.0041
39.296875000,  0.0385
39.312500000,  0.0421
39.328125000,  0.0216
39.343750000,  0.0277
39.359375000,  0.0329
39.375000000,  0.0436
39.390625000,  0.0483
39.406250000,  0.0343
39.421875000,  0.0348
39.437500000,  0.0515
39.453125000,  0.0445
39.468750000,  0.0409
39.484375000,  0.0336
39.500000000,  0.0435
39.515625000,  0.0449
39.531250000,  0.0362
39.546875000,  0.0224
39.562500000,  0.0245
39.578125000,  0.0527
39.593750000,  0.0335
39.609375000,  0.0139
39.625000000, -0.0107
39.640625000,  0.0354
39.656250000,  0.1030
39.671875000,  0.0861
39.687500000,  0.0057
39.703125000,  0.0264
39.718750000, -0.0036
39.734375000,  0.0156
39.750000000, -0.2994
39.765625000,  0.1261
39.781250000,  1.8314
39.796875000,  0.1983
39.812500000, -0.0985
39.828125000, -0.2777
39.843750000, -0.2636
39.859375000, -0.2287
39.875000000, -0.1965
39.890625000, -0.1752
39.906250000, -0.1587
39.921875000, -0.1304
39.937500000, -0.0991
39.953125000, -0.0611
39.968750000, -0.0415
39.984375000, -0.0328
40.000000000, -0.0025
40.015625000,  0.0292
40.031250000,  0.0177
40.046875000, -0.0315
40.062500000, -0.0951
40.078125000, -0.1017
40.093750000, -0.1127
40.109375000, -0.1084
40.125000000, -0.1244
40.140625000, -0.0936
40.156250000, -0.0729
40.171875000, -0.0594
40.187500000, -0.0420
40.203125000, -0.0481
40.218750000, -0.0361
40.234375000,  0.0032
40.250000000,  0.0025
40.265625000, -0.0093
40.281250000, -0.0030
40.296875000,  0.0161
40.312500000,  0.0324
40.328125000,  0.0107
40.343750000,  0.0060
40.359375000,  0.0246
40.375000000,  0.0377
40.390625000,  0.0331
40.406250000,  0.0267
40.421875000,  0.0371
40.437500000,  0.0647
40.453125000,  0.0408
40.468750000,  0.0246
40.484375000,  0.0331
40.500000000,  0.0417
40.515625000,  0.0438
40.531250000,  0.0452
40.546875000, -0.0060
40.562500000,  0.0134
40.578125000,  0.1011
40.593750000,  0.1037
40.609375000,  0.0239
40.625000000,  0.0320
40.640625000,  0.0297
40.656250000,  0.0285
40.671875000, -0.2138
40.687500000, -0.1599
40.703125000,  1.8629
40.718750000,  0.3202
40.734375000, -0.0311
40.750000000, -0.2402
40.765625000, -0.2606
40.781250000, -0.2289
40.796875000, -0.1938
40.812500000, -0.1599
40.828125000, -0.1704
40.843750000, -0.1368
40.859375000, -0.0973
40.875000000, -0.0608
40.890625000, -0.0454
40.906250000, -0.0227
40.921875000, -0.0072
40.937500000,  0.0366
40.953125000,  0.0346
40.968750000, -0.0028
40.984375000, -0.0521
41.000000000, -0.1015
41.015625000, -0.0933
41.031250000, -0.0929
41.046875000, -0.0985
41.062500000, -0.0865
41.078125000, -0.0450
41.093750000, -0.0314
41.109375000, -0.0238
41.125000000, -0.0457
41.140625000, -0.0269
41.156250000,  0.0054
41.171875000,  0.0008
41.187500000, -0.0133
41.203125000, -0.0163
41.218750000,  0.0031
41.234375000,  0.0103
41.250000000,  0.0083
41.265625000,  0.0160
41.281250000,  0.0252
41.296875000,  0.0422
41.312500000,  0.0509
41.328125000,  0.0209
41.343750000,  0.0211
41.359375000,  0.0496
41.375000000,  0.0430
41.390625000,  0.0520
41.406250000,  0.0283
41.421875000,  0.0111
41.437500000, -0.0044
41.453125000,  0.0745
41.468750000,  0.0910
41.484375000,  0.0725
41.500000000,  0.0315
41.515625000,  0.0464
41.531250000,  0.0201
41.546875000, -0.0086
41.562500000, -0.3005
41.578125000,  0.5182
41.593750000,  1.3537
41.609375000, -0.0650
41.625000000, -0.1663
41.640625000, -0.2263
41.656250000, -0.2207
41.671875000, -0.2114
41.687500000, -0.1750
41.703125000, -0.1649
41.718750000, -0.1290
41.734375000, -0.0942
41.750000000, -0.0907
41.765625000, -0.0811
41.781250000, -0.0326
41.796875000,  0.0132
41.812500000,  0.0135
41.828125000,  0.0040
41.843750000,  0.0053
41.859375000, -0.0407
41.875000000, -0.0721
41.890625000, -0.0924
41.906250000, -0.1078
41.921875000, -0.1003
41.937500000, -0.0475
41.953125000, -0.0492
41.968750000, -0.0449
41.984375000, -0.0539
42.000000000, -0.0261
42.015625000, -0.0145
42.031250000, -0.0135
42.046875000, -0.0157
42.062500000, -0.0006
42.078125000,  0.0039
42.093750000,  0.0179
42.109375000,  0.0133
42.125000000,  0.0091
42.140625000,  0.0310
42.156250000,  0.0489
42.171875000,  0.0356
42.187500000,  0.0151
42.203125000,  0.0186
42.218750000,  0.0394
42.234375000,  0.0417
42.250000000,  0.0378
42.265625000,  0.0169
42.281250000, -0.0020
42.296875000,  0.0558
42.312500000,  0.0874
42.328125000,  0.0656
42.343750000,  0.0099
42.359375000,  0.0436
42.375000000,  0.0393
42.390625000,  0.0271
42.406250000, -0.2857
42.421875000,  0.1690
42.437500000,  1.6322
42.453125000,  0.0585
42.468750000, -0.1086
42.484375000, -0.2046
42.500000000, -0.1949
42.515625000, -0.1481
42.531250000, -0.1271
42.546875000, -0.1333
42.562500000, -0.1032
42.578125000, -0.0493
42.593750000, -0.0329
42.609375000, -0.0343
42.625000000, -0.0146
42.640625000,  0.0227
42.656250000,  0.0466
42.671875000,  0.0330
42.687500000,  0.0187
42.703125000, -0.0232
42.718750000, -0.0682
42.734375000, -0.0876
42.750000000, -0.1075
42.765625000, -0.1291
42.781250000, -0.1035
42.796875000, -0.0703
42.812500000, -0.0517
42.828125000, -0.0483
42.843750000, -0.0406
42.859375000, -0.0367
42.875000000, -0.0231
42.890625000, -0.0278
42.906250000, -0.0454
42.921875000, -0.0242
42.937500000, -0.0126
42.953125000, -0.0054
42.968750000, -0.0208
42.984375000, -0.0060
43.000000000,  0.0075
43.015625000,  0.0114
43.031250000, -0.0046
43.046875000,  0.0079
43.062500000,  0.0117
43.078125000,  0.0058
43.093750000, -0.0138
43.109375000,  0.0760
43.125000000,  0.0744
43.140625000,  0.0506
43.156250000,  0.0277
43.171875000,  0.0354
43.187500000,  0.0100
43.203125000, -0.0857
43.218750000, -0.2339
43.234375000,  0.9891
43.250000000,  0.5563
43.265625000, -0.2024
43.281250000, -0.1924
43.296875000, -0.1651
43.312500000, -0.1606
43.328125000, -0.1448
43.343750000, -0.1175
43.359375000, -0.0909
43.375000000, -0.0613
43.390625000, -0.0324
43.406250000, -0.0145
43.421875000,  0.0175
43.437500000,  0.0265
43.453125000,  0.0507
43.468750000,  0.0625
43.484375000,  0.0638
43.500000000,  0.0300
43.515625000, -0.0227
43.531250000, -0.0783
43.546875000, -0.1105
43.562500000, -0.1103
43.578125000, -0.0752
43.593750000, -0.0672
43.609375000, -0.0715
43.625000000, -0.0570
43.640625000, -0.0487
43.656250000, -0.0277
43.671875000, -0.0039
43.687500000, -0.0441
43.703125000, -0.0342
43.718750000, -0.0064
43.734375000, -0.0080
43.750000000, -0.0155
43.765625000, -0.0047
43.781250000,  0.0012
43.796875000,  0.0409
43.812500000,  0.0152
43.828125000, -0.0028
43.843750000,  0.0194
43.859375000, -0.0056
43.875000000,  0.0567
43.890625000,  0.0733
43.906250000,  0.0589
43.921875000,  0.0053
43.937500000,  0.0331
43.953125000,  0.0300
43.968750000,  0.0009
43.984375000, -0.2627
44.000000000,  0.2101
44.015625000,  1.4958
44.031250000, -0.1084
44.046875000, -0.1532
44.062500000, -0.1609
44.078125000, -0.1354
44.093750000, -0.1071
44.109375000, -0.1160
44.125000000, -0.0873
44.140625000, -0.0513
44.156250000, -0.0237
44.171875000, -0.0230
44.187500000, -0.0029
44.203125000,  0.0297
44.218750000,  0.0700
44.234375000,  0.0698
44.250000000,  0.0624
44.265625000,  0.0336
44.281250000, -0.0088
44.296875000, -0.0680
44.312500000, -0.0966
44.328125000, -0.1070
44.343750000, -0.1237
44.359375000, -0.0848
44.375000000, -0.0729
44.390625000, -0.0533
44.406250000, -0.0599
44.421875000, -0.0272
44.437500000, -0.0036
44.453125000, -0.0114
44.468750000, -0.0290
44.484375000, -0.0335
44.500000000,  0.0007
44.515625000, -0.0077
44.531250000,  0.0023
44.546875000, -0.0061
44.562500000, -0.0190
44.578125000, -0.0138
44.593750000, -0.0034
44.609375000,  0.0706
44.625000000,  0.0718
44.640625000,  0.0516
44.656250000,  0.0279
44.671875000,  0.0159
44.687500000,  0.0007
44.703125000, -0.0674
44.718750000, -0.1965
44.734375000,  0.9923
44.750000000,  0.4141
44.765625000, -0.2426
44.781250000, -0.1944
44.796875000, -0.1371
44.812500000, -0.1186
44.828125000, -0.1061
44.843750000, -0.1017
44.859375000, -0.0646
44.875000000, -0.0368
44.890625000, -0.0477
44.906250000, -0.0148
44.921875000,  0.0252
44.937500000,  0.0587
44.953125000,  0.0615
44.968750000,  0.0472
44.984375000,  0.0672
45.000000000,  0.0256
45.015625000, -0.0318
45.031250000, -0.0877
45.046875000, -0.1157
45.062500000, -0.0894
45.078125000, -0.0826
45.093750000, -0.0650
45.109375000, -0.0768
45.125000000, -0.0473
45.140625000, -0.0409
45.156250000, -0.0159
45.171875000, -0.0278
45.187500000, -0.0285
45.203125000, -0.0295
45.218750000,  0.0060
45.234375000, -0.0032
45.250000000, -0.0103
45.265625000, -0.0130
45.281250000,  0.0080
45.296875000, -0.0194
45.312500000,  0.0389
45.328125000,  0.0698
45.343750000,  0.0145
45.359375000,  0.0320
45.375000000,  0.0167
45.390625000,  0.0015
45.406250000, -0.0302
45.421875000, -0.2653
45.437500000,  0.6156
45.453125000,  0.9574
45.468750000, -0.2179
45.484375000, -0.2229
45.500000000, -0.1847
45.515625000, -0.1504
45.531250000, -0.1423
45.546875000, -0.1356
45.562500000, -0.1011
45.578125000, -0.0737
45.593750000, -0.0508
45.609375000, -0.0357
45.625000000, -0.0280
45.640625000,  0.0206
45.656250000,  0.0150
45.671875000,  0.0105
45.687500000,  0.0162
45.703125000,  0.0029
45.718750000, -0.0253
45.734375000, -0.0676
45.750000000, -0.0866
45.765625000, -0.0802
45.781250000, -0.0502
45.796875000, -0.0443
45.812500000, -0.0287
45.828125000, -0.0400
45.843750000, -0.0418
45.859375000, -0.0130
45.875000000, -0.0013
45.890625000,  0.0018
45.906250000, -0.0092
45.921875000,  0.0059
45.937500000,  0.0261
45.953125000,  0.0226
45.968750000,  0.0079
45.984375000,  0.0280
46.000000000,  0.0204
46.015625000,  0.0166
46.031250000,  0.0426
46.046875000,  0.0847
46.062500000,  0.0938
46.078125000,  0.0550
46.093750000,  0.0469
46.109375000,  0.0173
46.125000000,  0.0227
46.140625000, -0.1742
46.156250000, -0.1706
46.171875000,  1.7153
46.187500000,  0.2227
46.203125000, -0.0997
46.218750000, -0.2073
46.234375000, -0.1909
46.250000000, -0.1766
46.265625000, -0.1596
46.281250000, -0.1298
46.296875000, -0.1145
46.312500000, -0.1043
46.328125000, -0.0771
46.343750000, -0.0674
46.359375000, -0.0335
46.375000000, -0.0384
46.390625000, -0.0606
46.406250000, -0.0545
46.421875000, -0.0407
46.437500000, -0.0064
46.453125000, -0.0320
46.468750000, -0.0458
46.484375000, -0.0313
46.500000000, -0.0020
46.515625000,  0.0118
46.531250000, -0.0064
46.546875000, -0.0083
46.562500000,  0.0114
46.578125000,  0.0125
46.593750000,  0.0079
46.609375000,  0.0175
46.625000000, -0.0007
46.640625000,  0.0182
46.656250000,  0.0180
46.671875000,  0.0112
46.687500000,  0.0106
46.703125000,  0.0183
46.718750000,  0.0275
46.734375000,  0.0348
46.750000000,  0.0204
46.765625000,  0.0067
46.781250000,  0.0184
46.796875000, -0.0002
46.812500000,  0.0708
46.828125000,  0.0779
46.843750000,  0.0471
46.859375000,  0.0229
46.875000000,  0.0241
46.890625000, -0.0070
46.906250000, -0.0170
46.921875000, -0.2962
46.937500000,  0.4782
46.953125000,  1.5003
46.968750000,  0.0125
46.984375000, -0.2294
47.000000000, -0.2602
47.015625000, -0.2536
47.031250000, -0.2375
47.046875000, -0.2072
47.062500000, -0.2088
47.078125000, -0.1527
47.093750000, -0.1499
47.109375000, -0.1174
47.125000000, -0.0997
47.140625000, -0.0878
47.156250000, -0.0647
47.171875000, -0.0760
47.187500000, -0.0786
47.203125000, -0.0574
47.218750000, -0.0160
47.234375000, -0.0228
47.250000000, -0.0465
47.265625000, -0.0366
47.281250000, -0.0208
47.296875000, -0.0046
47.312500000, -0.0033
47.328125000, -0.0030
47.343750000, -0.0048
47.359375000,  0.0141
47.375000000,  0.0086
47.390625000,  0.0034
47.406250000, -0.0010
47.421875000,  0.0253
47.437500000,  0.0271
47.453125000,  0.0305
47.468750000,  0.0075
47.484375000,  0.0113
47.500000000,  0.0354
47.515625000,  0.0204
47.531250000,  0.0296
47.546875000,  0.0169
47.562500000,  0.0375
47.578125000,  0.0527
47.593750000,  0.0157
47.609375000, -0.0072
47.625000000,  0.0494
47.640625000,  0.1058
47.656250000,  0.0875
47.671875000,  0.0157
47.687500000,  0.0170
47.703125000,  0.0147
47.718750000,  0.0230
47.734375000, -0.2770
47.750000000,  0.2458
47.765625000,  1.7070
47.781250000,  0.0964
47.796875000, -0.1383
47.812500000, -0.2573
47.828125000, -0.2822
47.843750000, -0.2248
47.859375000, -0.1959
47.875000000, -0.1768
47.890625000, -0.1765
47.906250000, -0.1518
47.921875000, -0.1090
47.937500000, -0.0607
47.953125000, -0.0412
47.968750000, -0.0575
47.984375000, -0.0554
48.000000000, -0.0440
48.015625000, -0.0340
48.031250000, -0.0478
48.046875000, -0.0612
48.062500000, -0.0496
48.078125000, -0.0400
48.093750000, -0.0513
48.109375000, -0.0551
48.125000000, -0.0467
48.140625000, -0.0156
48.156250000,  0.0009
48.171875000, -0.0063
48.187500000, -0.0056
48.203125000,  0.0161
48.218750000,  0.0343
48.234375000,  0.0294
48.250000000,  0.0180
48.265625000,  0.0279
48.281250000,  0.0339
48.296875000,  0.0441
48.312500000,  0.0413
48.328125000,  0.0270
48.343750000,  0.0494
48.359375000,  0.0282
48.375000000,  0.0520
48.390625000,  0.0294
48.406250000,  0.0237
48.421875000,  0.0326
48.437500000,  0.0417
48.453125000,  0.0066
48.468750000,  0.0751
48.484375000,  0.0943
48.500000000,  0.0662
48.515625000,  0.0454
48.531250000,  0.0321
48.546875000,  0.0083
48.562500000,  0.0064
48.578125000, -0.2604
48.593750000,  0.5581
48.609375000,  1.3268
48.625000000, -0.0523
48.640625000, -0.1752
48.656250000, -0.2157
48.671875000, -0.2448
48.687500000, -0.2177
48.703125000, -0.1786
48.718750000, -0.1517
48.734375000, -0.1216
48.750000000, -0.1166
48.765625000, -0.0987
48.781250000, -0.0695
48.796875000, -0.0407
48.812500000, -0.0573
48.828125000, -0.0559
48.843750000, -0.0357
48.859375000, -0.0363
48.875000000, -0.0629
48.890625000, -0.0958
48.906250000, -0.0942
48.921875000, -0.0808
48.937500000, -0.0780
48.953125000, -0.0400
48.968750000, -0.0561
48.984375000, -0.0329
49.000000000, -0.0079
49.015625000, -0.0212
49.031250000, -0.0030
49.046875000, -0.0142
49.062500000, -0.0044
49.078125000,  0.0334
49.093750000,  0.0100
49.109375000, -0.0063
49.125000000,  0.0079
49.140625000,  0.0428
49.156250000,  0.0459
49.171875000,  0.0320
49.187500000,  0.0104
49.203125000,  0.0239
49.218750000,  0.0430
49.234375000,  0.0390
49.250000000,  0.0273
49.265625000,  0.0419
49.281250000,  0.0279
49.296875000,  0.0187
49.312500000,  0.0671
49.328125000,  0.0823
49.343750000,  0.0544
49.359375000,  0.0485
49.375000000,  0.0251
49.390625000,  0.0256
49.406250000,  0.0007
49.421875000, -0.2867
49.437500000,  0.4829
49.453125000,  1.4236
49.468750000, -0.0475
49.484375000, -0.1490
49.500000000, -0.2127
49.515625000, -0.2159
49.531250000, -0.1993
49.546875000, -0.1883
49.562500000, -0.1450
49.578125000, -0.1126
49.593750000, -0.1025
49.609375000, -0.0884
49.625000000, -0.0553
49.640625000, -0.0448
49.656250000, -0.0186
49.671875000, -0.0420
49.687500000, -0.0406
49.703125000, -0.0208
49.718750000, -0.0585
49.734375000, -0.0711
49.750000000, -0.0859
49.765625000, -0.1033
49.781250000, -0.0684
49.796875000, -0.0405
49.812500000, -0.0603
49.828125000, -0.0648
49.843750000, -0.0416
49.859375000, -0.0146
49.875000000, -0.0051
49.890625000, -0.0228
49.906250000, -0.0009
49.921875000, -0.0051
49.937500000,  0.0187
49.953125000,  0.0020
49.968750000,  0.0053
49.984375000,  0.0060
50.000000000,  0.0259
50.015625000,  0.0348
50.031250000,  0.0068
50.046875000,  0.0035
50.062500000,  0.0352
50.078125000,  0.0407
50.093750000,  0.0361
50.109375000,  0.0202
50.125000000,  0.0178
50.140625000,  0.0177
50.156250000,  0.1193
50.171875000,  0.1096
50.187500000,  0.0391
50.203125000,  0.0042
50.218750000,  0.0249
50.234375000,  0.0134
50.250000000, -0.0925
50.265625000, -0.2822
50.281250000,  1.2130
50.296875000,  0.6195
50.312500000, -0.1084
50.328125000, -0.2090
50.343750000, -0.2299
50.359375000, -0.1883
50.375000000, -0.1879
50.390625000, -0.1780
50.406250000, -0.1408
50.421875000, -0.1204
50.437500000, -0.0865
50.453125000, -0.0824
50.468750000, -0.0506
50.484375000, -0.0269
50.500000000, -0.0146
50.515625000, -0.0145
50.531250000, -0.0344
50.546875000, -0.0437
50.562500000, -0.0572
50.578125000, -0.0687
50.593750000, -0.0768
50.609375000, -0.0885
50.625000000, -0.0746
50.640625000, -0.0427
50.656250000, -0.0333
50.671875000, -0.0317
50.687500000, -0.0269
50.703125000,  0.0034
50.718750000,  0.0039
50.734375000,  0.0120
50.750000000, -0.0039
50.765625000,  0.0005
50.781250000,  0.0303
50.796875000,  0.0316
50.812500000,  0.0191
50.828125000,  0.0226
50.843750000,  0.0307
50.859375000,  0.0391
50.875000000,  0.0452
50.890625000,  0.0298
50.906250000,  0.0433
50.921875000,  0.0491
50.937500000,  0.0374
50.953125000,  0.0116
50.968750000,  0.0082
50.984375000,  0.1105
51.000000000,  0.1178
51.015625000,  0.0425
51.031250000,  0.0299
51.046875000,  0.0017
51.062500000,  0.0134
51.078125000, -0.1116
51.093750000, -0.2523
51.109375000,  1.3807
51.125000000,  0.4619
51.140625000, -0.1261
51.156250000, -0.1998
51.171875000, -0.2233
51.187500000, -0.2171
51.203125000, -0.1649
51.218750000, -0.1661
51.234375000, -0.1283
51.250000000, -0.0994
51.265625000, -0.0845
51.281250000, -0.0595
51.296875000, -0.0058
51.312500000, -0.0106
51.328125000, -0.0163
51.343750000, -0.0115
51.359375000, -0.0064
51.375000000, -0.0155
51.390625000, -0.0646
51.406250000, -0.0936
51.421875000, -0.0639
51.437500000, -0.0813
51.453125000, -0.0908
51.468750000, -0.0769
51.484375000, -0.0508
51.500000000, -0.0103
51.515625000, -0.0363
51.531250000, -0.0235
51.546875000, -0.0297
51.562500000,  0.0023
51.578125000, -0.0037
51.593750000, -0.0039
51.609375000, -0.0060
51.625000000,  0.0083
51.640625000,  0.0154
51.656250000,  0.0194
51.671875000,  0.0148
51.687500000,  0.0075
51.703125000,  0.0187
51.718750000,  0.0246
51.734375000,  0.0084
51.750000000,  0.0021
51.765625000, -0.0147
51.781250000,  0.0305
51.796875000,  0.0975
51.812500000,  0.0935
51.828125000,  0.0119
51.843750000,  0.0220
51.859375000,  0.0375
51.875000000,  0.0241
51.890625000, -0.1988
51.906250000, -0.2432
51.921875000,  1.4917
51.937500000,  0.2898
51.953125000, -0.1380
51.968750000, -0.2164
51.984375000, -0.2115
52.000000000, -0.1538
52.015625000, -0.1428
52.031250000, -0.1338
52.046875000, -0.1090
52.062500000, -0.0608
52.078125000, -0.0650
52.093750000, -0.0366
52.109375000, -0.0095
52.125000000,  0.0060
52.140625000,  0.0129
52.156250000,  0.0455
52.171875000,  0.0016
52.187500000, -0.0091
52.203125000, -0.0593
52.218750000, -0.0729
52.234375000, -0.0835
52.250000000, -0.1144
52.265625000, -0.0808
52.281250000, -0.0596
52.296875000, -0.0545
52.312500000, -0.0343
52.328125000, -0.0283
52.343750000, -0.0196
52.359375000, -0.0101
52.375000000, -0.0112
52.390625000, -0.0235
52.406250000, -0.0153
52.421875000,  0.0008
52.437500000,  0.0117
52.453125000, -0.0066
52.468750000, -0.0101
52.484375000,  0.0078
52.500000000,  0.0295
52.515625000,  0.0244
52.531250000,  0.0001
52.546875000,  0.0027
52.562500000,  0.0315
52.578125000,  0.0137
52.593750000,  0.0745
52.609375000,  0.0750
52.625000000,  0.0678
52.640625000,  0.0562
52.656250000,  0.0349
52.671875000,  0.0253
52.687500000,  0.0192
52.703125000, -0.2840
52.718750000,  0.3066
52.734375000,  1.4287
52.750000000, -0.1020
52.765625000, -0.1248
52.781250000, -0.1687
52.796875000, -0.1379
52.812500000, -0.1479
52.828125000, -0.1237
52.843750000, -0.0842
52.859375000, -0.0505
52.875000000, -0.0605
52.890625000, -0.0326
52.906250000, -0.0030
52.921875000,  0.0302
52.937500000,  0.0520
52.953125000,  0.0624
52.968750000,  0.0313
52.984375000,  0.0465
53.000000000, -0.0026
53.015625000, -0.0669
53.031250000, -0.1254
53.046875000, -0.1024
53.062500000, -0.0922
53.078125000, -0.0873
53.093750000, -0.1021
53.109375000, -0.0666
53.125000000, -0.0455
53.140625000, -0.0123
53.156250000, -0.0439
53.171875000, -0.0136
53.187500000, -0.0299
53.203125000, -0.0188
53.218750000, -0.0132
53.234375000, -0.0304
53.250000000, -0.0168
53.265625000, -0.0139
53.281250000,  0.0026
53.296875000,  0.0062
53.312500000, -0.0191
53.328125000, -0.0173
53.343750000, -0.0099
53.359375000,  0.0897
53.375000000,  0.0692
53.390625000,  0.0366
53.406250000, -0.0114
53.421875000,  0.0288
53.437500000,  0.0219
53.453125000, -0.0423
53.468750000, -0.2680
53.484375000,  0.7180
53.500000000,  0.7170
53.515625000, -0.2378
53.531250000, -0.2059
53.546875000, -0.1726
53.562500000, -0.1302
53.578125000, -0.1147
53.593750000, -0.1038
53.609375000, -0.0928
53.625000000, -0.0627
53.640625000, -0.0380
53.656250000, -0.0005
53.671875000,  0.0005
53.687500000,  0.0348
53.703125000,  0.0545
53.718750000,  0.0778
53.734375000,  0.0565
53.750000000,  0.0256
53.765625000, -0.0230
53.781250000, -0.0828
53.796875000, -0.1068
53.812500000, -0.1101
53.828125000, -0.1046
53.843750000, -0.0767
53.859375000, -0.0237
53.875000000, -0.0425
53.890625000, -0.0315
53.906250000, -0.0088
53.921875000, -0.0016
53.937500000,  0.0021
53.953125000, -0.0044
53.968750000, -0.0073
53.984375000,  0.0098
54.000000000,  0.0179
54.015625000,  0.0065
54.031250000,  0.0065
54.046875000,  0.0220
54.062500000,  0.0157
54.078125000,  0.0192
54.093750000,  0.0172
54.109375000, -0.0138
54.125000000,  0.0855
54.140625000,  0.0864
54.156250000,  0.0766
54.171875000, -0.0041
54.187500000,  0.0119
54.203125000,  0.0301
54.218750000,  0.0042
54.234375000, -0.2735
54.250000000,  0.4988
54.265625000,  1.1469
54.281250000, -0.1673
54.296875000, -0.1385
54.312500000, -0.1982
54.328125000, -0.1582
54.343750000, -0.1482
54.359375000, -0.1214
54.375000000, -0.1094
54.390625000, -0.0891
54.406250000, -0.0517
54.421875000, -0.0272
54.437500000, -0.0038
54.453125000, -0.0184
54.468750000, -0.0012
54.484375000,  0.0434
54.500000000,  0.0309
54.515625000,  0.0199
54.531250000, -0.0527
54.546875000, -0.0934
54.562500000, -0.0954
54.578125000, -0.0801
54.593750000, -0.0787
54.609375000, -0.0823
54.625000000, -0.0602
54.640625000, -0.0276
54.656250000, -0.0298
54.671875000, -0.0273
54.687500000, -0.0031
54.703125000,  0.0028
54.718750000,  0.0035
54.734375000,  0.0043
54.750000000, -0.0089
54.765625000, -0.0015
54.781250000,  0.0139
54.796875000,  0.0097
54.812500000,  0.0194
54.828125000,  0.0067
54.843750000,  0.0338
54.859375000,  0.0256
54.875000000,  0.0080
54.890625000,  0.0096
54.906250000,  0.0013
54.921875000,  0.0689
54.937500000,  0.1006
54.953125000,  0.0397
54.968750000,  0.0101
54.984375000,  0.0316
55.000000000,  0.0347
55.015625000,  0.0052
55.031250000, -0.2850
55.046875000,  0.2957
55.062500000,  1.4831
55.078125000, -0.0628
55.093750000, -0.1449
55.109375000, -0.2363
55.125000000, -0.1955
55.140625000, -0.1491
55.156250000, -0.1423
55.171875000, -0.1431
55.187500000, -0.1150
55.203125000, -0.0746
55.218750000, -0.0607
55.234375000, -0.0427
55.250000000, -0.0346
55.265625000,  0.0052
55.281250000,  0.0243
55.296875000,  0.0116
55.312500000, -0.0131
55.328125000, -0.0365
55.343750000, -0.0615
55.359375000, -0.0730
55.375000000, -0.0646
55.390625000, -0.0752
55.406250000, -0.0467
55.421875000, -0.0358
55.437500000, -0.0233
55.453125000, -0.0151
55.468750000, -0.0181
55.484375000,  0.0098
55.500000000,  0.0187
55.515625000,  0.0052
55.531250000, -0.0030
55.546875000,  0.0038
55.562500000,  0.0172
55.578125000,  0.0376
55.593750000,  0.0146
55.609375000,  0.0158
55.625000000,  0.0268
55.640625000,  0.0427
55.656250000,  0.0300
55.671875000,  0.0276
55.687500000,  0.0266
55.703125000,  0.0352
55.718750000,  0.0376
55.734375000, -0.0003
55.750000000,  0.0175
55.765625000,  0.0918
55.781250000,  0.0916
55.796875000,  0.0413
55.812500000,  0.0148
55.828125000,  0.0051
55.843750000,  0.0165
55.859375000, -0.1007
55.875000000, -0.2378
55.890625000,  1.2859
55.906250000,  0.5828
55.921875000, -0.0709
55.937500000, -0.2542
55.953125000, -0.2693
55.968750000, -0.2403
55.984375000, -0.2007
56.000000000, -0.1715
56.015625000, -0.1777
56.031250000, -0.1590
56.046875000, -0.1371
56.062500000, -0.1010
56.078125000, -0.0868
56.093750000, -0.0740
56.109375000, -0.0899
56.125000000, -0.0675
56.140625000, -0.0316
56.156250000, -0.0479
56.171875000, -0.0611
56.187500000, -0.0455
56.203125000, -0.0276
56.218750000, -0.0313
56.234375000, -0.0439
56.250000000, -0.0261
56.265625000, -0.0167
56.281250000, -0.0075
56.296875000, -0.0061
56.312500000, -0.0028
56.328125000,  0.0001
56.343750000, -0.0005
56.359375000,  0.0361
56.375000000,  0.0253
56.390625000,  0.0118
56.406250000,  0.0383
56.421875000,  0.0229
56.437500000,  0.0311
56.453125000,  0.0210
56.468750000,  0.0124
56.484375000,  0.0373
56.500000000,  0.0241
56.515625000,  0.0299
56.531250000,  0.0079
56.546875000,  0.0310
56.562500000,  0.0231
56.578125000,  0.0363
56.593750000,  0.0259
56.609375000, -0.0031
56.625000000,  0.0125
56.640625000,  0.0074
56.656250000,  0.0988
56.671875000,  0.0709
56.687500000,  0.0592
56.703125000,  0.0306
56.718750000,  0.0384
56.734375000,  0.0135
56.750000000, -0.0429
56.765625000, -0.2681
56.781250000,  0.8421
56.796875000,  1.1485
56.812500000, -0.0063
56.828125000, -0.2284
56.843750000, -0.2635
56.859375000, -0.2412
56.875000000, -0.2370
56.890625000, -0.2291
56.906250000, -0.1973
56.921875000, -0.1501
56.937500000, -0.1441
56.953125000, -0.1436
56.968750000, -0.1239
56.984375000, -0.0892
57.000000000, -0.0646
57.015625000, -0.0745
57.031250000, -0.0804
57.046875000, -0.0533
57.062500000, -0.0284
57.078125000, -0.0532
57.093750000, -0.0707
57.109375000, -0.0563
57.125000000, -0.0469
57.140625000, -0.0217
57.156250000, -0.0316
57.171875000, -0.0306
57.187500000, -0.0119
57.203125000,  0.0060
57.218750000,  0.0205
57.234375000,  0.0190
57.250000000,  0.0118
57.265625000,  0.0328
57.281250000,  0.0455
57.296875000,  0.0413
57.312500000,  0.0359
57.328125000,  0.0593
57.343750000,  0.0413
57.359375000,  0.0438
57.375000000,  0.0438
57.390625000,  0.0427
57.406250000,  0.0262
57.421875000,  0.0632
57.437500000,  0.0522
57.453125000,  0.0252
57.468750000,  0.0353
57.484375000,  0.0238
57.500000000,  0.0496
57.515625000,  0.0175
57.531250000,  0.0084
57.546875000,  0.0035
57.562500000,  0.0220
57.578125000,  0.0826
57.593750000,  0.0719
57.609375000,  0.0153
57.625000000,  0.0254
57.640625000,  0.0288
57.656250000,  0.0142
57.671875000, -0.1815
57.687500000, -0.2532
57.703125000,  1.7065
57.718750000,  0.5074
57.734375000, -0.0780
57.750000000, -0.2622
57.765625000, -0.2583
57.781250000, -0.2435
57.796875000, -0.2206
57.812500000, -0.2151
57.828125000, -0.1852
57.843750000, -0.1454
57.859375000, -0.1196
57.875000000, -0.1050
57.890625000, -0.0976
57.906250000, -0.0495
57.921875000, -0.0329
57.937500000, -0.0435
57.953125000, -0.0399
57.968750000, -0.0455
57.984375000, -0.0451
58.000000000, -0.0392
58.015625000, -0.0608
58.031250000, -0.0692
58.046875000, -0.0613
58.062500000, -0.0234
58.078125000, -0.0282
58.093750000, -0.0361
58.109375000, -0.0284
58.125000000, -0.0154
58.140625000,  0.0293
58.156250000, -0.0157
58.171875000,  0.0061
58.187500000,  0.0103
58.203125000,  0.0247
58.218750000,  0.0315
58.234375000,  0.0236
58.250000000,  0.0193
58.265625000,  0.0358
58.281250000,  0.0314
58.296875000,  0.0274
58.312500000,  0.0248
58.328125000,  0.0332
58.343750000,  0.0552
58.359375000,  0.0534
58.375000000,  0.0254
58.390625000,  0.0165
58.406250000,  0.0311
58.421875000,  0.0190
58.437500000,  0.0379
58.453125000, -0.0181
58.468750000, -0.0329
58.484375000,  0.1070
58.500000000,  0.0976
58.515625000,  0.0542
58.531250000,  0.0138
58.546875000,  0.0135
58.562500000,  0.0260
58.578125000, -0.0449
58.593750000, -0.2780
58.609375000,  0.9557
58.625000000,  0.9201
58.640625000, -0.0554
58.656250000, -0.2260
58.671875000, -0.2652
58.687500000, -0.2409
58.703125000, -0.2064
58.718750000, -0.1699
58.734375000, -0.1833
58.750000000, -0.1486
58.765625000, -0.1123
58.781250000, -0.0611
58.796875000, -0.0732
58.812500000, -0.0559
58.828125000, -0.0527
58.843750000, -0.0299
58.859375000, -0.0333
58.875000000, -0.0293
58.890625000, -0.0757
58.906250000, -0.1012
58.921875000, -0.0761
58.937500000, -0.0774
58.953125000, -0.0694
58.968750000, -0.0767
58.984375000, -0.0716
59.000000000, -0.0303
59.015625000, -0.0278
59.031250000, -0.0369
59.046875000, -0.0179
59.062500000,  0.0007
59.078125000,  0.0061
59.093750000,  0.0001
59.109375000,  0.0078
59.125000000,  0.0142
59.140625000,  0.0316
59.156250000,  0.0164
59.171875000,  0.0418
59.187500000,  0.0213
59.203125000,  0.0458
59.218750000,  0.0386
59.234375000,  0.0092
59.250000000,  0.0283
59.265625000,  0.0372
59.281250000,  0.0503
59.296875000,  0.0405
59.312500000,  0.0412
59.328125000,  0.0166
59.343750000,  0.0281
59.359375000,  0.0164
59.375000000,  0.0593
59.390625000,  0.0864
59.406250000,  0.0581
59.421875000,  0.0187
59.437500000,  0.0310
59.453125000,  0.0091
59.468750000, -0.0043
59.484375000, -0.2925
59.500000000,  0.4019
59.515625000,  1.5142
59.531250000,  0.0266
59.546875000, -0.1361
59.562500000, -0.2291
59.578125000, -0.2268
59.593750000, -0.2120
59.609375000, -0.1923
59.625000000, -0.1672
59.640625000, -0.1171
59.656250000, -0.1124
59.671875000, -0.0836
59.687500000, -0.0756
59.703125000, -0.0195
59.718750000, -0.0384
59.734375000, -0.0410
59.750000000, -0.0597
59.765625000, -0.0312
59.781250000, -0.0408
59.796875000, -0.0702
59.812500000, -0.0896
59.828125000, -0.0868
59.843750000, -0.0689
59.859375000, -0.0751
59.875000000, -0.0664
59.890625000, -0.0440
59.906250000, -0.0300
59.921875000,  0.0085
59.937500000, -0.0073
59.953125000, -0.0112
59.968750000,  0.0117
59.984375000,  0.0179
60.000000000,  0.0136
60.015625000,  0.0193
60.031250000,  0.0060
60.046875000,  0.0215
60.062500000,  0.0428
60.078125000,  0.0373
60.093750000,  0.0137
60.109375000,  0.0224
60.125000000,  0.0327
60.140625000,  0.0413
60.156250000,  0.0368
60.171875000,  0.0220
60.187500000,  0.0236
60.203125000,  0.0280
60.218750000,  0.0260
60.234375000, -0.0043
60.250000000, -0.0074
60.265625000,  0.1005
60.281250000,  0.1048
60.296875000,  0.0483
60.312500000,  0.0274
60.328125000,  0.0173
60.343750000,  0.0350
60.359375000, -0.1037
60.375000000, -0.2705
60.390625000,  1.3008
60.406250000,  0.5664
60.421875000, -0.0965
60.437500000, -0.2178
60.453125000, -0.2328
60.468750000, -0.2157
60.484375000, -0.1866
60.500000000, -0.1694
60.515625000, -0.1635
60.531250000, -0.1434
60.546875000, -0.1042
60.562500000, -0.0579
60.578125000, -0.0543
60.593750000, -0.0550
60.609375000, -0.0350
60.625000000, -0.0151
60.640625000, -0.0129
60.656250000, -0.0563
60.671875000, -0.0595
60.687500000, -0.0765
60.703125000, -0.0709
60.718750000, -0.0572
60.734375000, -0.0851
60.750000000, -0.0707
60.765625000, -0.0399
60.781250000, -0.0083
60.796875000, -0.0222
60.812500000, -0.0080
60.828125000, -0.0160
60.843750000, -0.0019
60.859375000,  0.0187
60.875000000,  0.0048
60.890625000,  0.0133
60.906250000,  0.0064
60.921875000,  0.0245
60.937500000,  0.0158
60.953125000,  0.0084
60.968750000,  0.0147
60.984375000,  0.0291
61.000000000,  0.0269
61.015625000,  0.0144
61.031250000,  0.0200
61.046875000,  0.0370
61.062500000,  0.0358
61.078125000,  0.0208
61.093750000, -0.0103
61.109375000, -0.0073
61.125000000,  0.0624
61.140625000,  0.0934
61.156250000,  0.0426
61.171875000,  0.0077
61.187500000,  0.0341
61.203125000,  0.0074
61.218750000, -0.0107
61.234375000, -0.3168
61.250000000,  0.5121
61.265625000,  1.3217
61.281250000, -0.0859
61.296875000, -0.1560
61.312500000, -0.2194
61.328125000, -0.1972
61.343750000, -0.1604
61.359375000, -0.1343
61.375000000, -0.1453
61.390625000, -0.1269
61.406250000, -0.0711
61.421875000, -0.0347
61.437500000, -0.0155
61.453125000, -0.0259
61.468750000, -0.0047
61.484375000,  0.0367
61.500000000,  0.0219
61.515625000,  0.0103
61.531250000, -0.0302
61.546875000, -0.0501
61.562500000, -0.0740
61.578125000, -0.0705
61.593750000, -0.0612
61.609375000, -0.0735
61.625000000, -0.0381
61.640625000, -0.0334
61.656250000, -0.0213
61.671875000, -0.0413
61.687500000, -0.0090
61.703125000,  0.0040
61.718750000, -0.0075
61.734375000, -0.0005
61.750000000, -0.0155
61.765625000,  0.0043
61.781250000,  0.0136
61.796875000,  0.0082
61.812500000,  0.0051
61.828125000,  0.0018
61.843750000,  0.0200
61.859375000,  0.0210
61.875000000,  0.0159
61.890625000,  0.0366
61.906250000,  0.0293
61.921875000,  0.0317
61.937500000, -0.0069
61.953125000,  0.0158
61.968750000,  0.0963
61.984375000,  0.0918
62.000000000,  0.0431
62.015625000,  0.0206
62.031250000,  0.0152
62.046875000, -0.0039
62.062500000, -0.1642
62.078125000, -0.1656
62.093750000,  1.5315
62.109375000,  0.1410
62.125000000, -0.1474
62.140625000, -0.1922
62.156250000, -0.1683
62.171875000, -0.1403
62.187500000, -0.1053
62.203125000, -0.1130
62.218750000, -0.0852
62.234375000, -0.0709
62.250000000, -0.0528
62.265625000,  0.0033
62.281250000,  0.0340
62.296875000,  0.0279
62.312500000,  0.0238
62.328125000,  0.0419
62.343750000,  0.0607
62.359375000,  0.0110
62.375000000, -0.0749
62.390625000, -0.0966
62.406250000, -0.1176
62.421875000, -0.1022
62.437500000, -0.1039
62.453125000, -0.0836
62.468750000, -0.0750
62.484375000, -0.0404
62.500000000, -0.0358
62.515625000, -0.0414
62.531250000, -0.0494
62.546875000, -0.0094
62.562500000, -0.0289
62.578125000, -0.0219
62.593750000, -0.0238
62.609375000, -0.0057
62.625000000, -0.0067
62.640625000, -0.0066
62.656250000,  0.0057
62.671875000,  0.0053
62.687500000,  0.0235
62.703125000,  0.0308
62.718750000,  0.0328
62.734375000,  0.0045
62.750000000,  0.0059
62.765625000,  0.0113
62.781250000,  0.0804
62.796875000,  0.0814
62.812500000,  0.0492
62.828125000,  0.0209
62.843750000,  0.0274
62.859375000,  0.0188
62.875000000, -0.0328
62.890625000, -0.2825
62.906250000,  0.5199
62.921875000,  1.2070
62.937500000, -0.1666
62.953125000, -0.1625
62.968750000, -0.2095
62.984375000, -0.1983
63.000000000, -0.1639
63.015625000, -0.1568
63.031250000, -0.1404
63.046875000, -0.1019
63.062500000, -0.0857
63.078125000, -0.0724
63.093750000, -0.0533
63.109375000, -0.0469
63.125000000, -0.0016
63.140625000, -0.0131
63.156250000, -0.0382
63.171875000, -0.0483
63.187500000, -0.0539
63.203125000, -0.0547
63.218750000, -0.0665
63.234375000, -0.0843
63.250000000, -0.0593
63.265625000, -0.0439
63.281250000, -0.0486
63.296875000, -0.0225
63.312500000, -0.0266
63.328125000, -0.0062
63.343750000,  0.0054
63.359375000,  0.0062
63.375000000, -0.0014
63.390625000, -0.0077
63.406250000,  0.0306
63.421875000,  0.0175
63.437500000,  0.0261
63.453125000, -0.0049
63.468750000,  0.0323
63.484375000,  0.0424
63.500000000,  0.0328
63.515625000,  0.0391
63.531250000,  0.0504
63.546875000,  0.0410
63.562500000,  0.0445
63.578125000,  0.0218
63.593750000, -0.0147
63.609375000,  0.0588
63.625000000,  0.0832
63.640625000,  0.0841
63.656250000,  0.0222
63.671875000,  0.0286
63.687500000,  0.0443
63.703125000,  0.0264
63.718750000, -0.2519
63.734375000, -0.0402
63.750000000,  1.8701
63.765625000,  0.2359
63.781250000, -0.0580
63.796875000, -0.2581
63.812500000, -0.2533
63.828125000, -0.2199
63.843750000, -0.1850
63.859375000, -0.1660
63.875000000, -0.1654
63.890625000, -0.1349
63.906250000, -0.0914
63.921875000, -0.0821
63.937500000, -0.0743
63.953125000, -0.0671
63.968750000, -0.0605
63.984375000, -0.0631
64.000000000, -0.0571
64.015625000, -0.0574
64.031250000, -0.0399
64.046875000, -0.0155
64.062500000, -0.0109
64.078125000, -0.0377
64.093750000, -0.0263
64.109375000,  0.0066
64.125000000, -0.0015
64.140625000,  0.0104
64.156250000,  0.0108
64.171875000,  0.0075
64.187500000,  0.0142
64.203125000,  0.0359
64.218750000,  0.0178
64.234375000,  0.0141
64.250000000,  0.0080
64.265625000,  0.0302
64.281250000,  0.0155
64.296875000,  0.0181
64.312500000, -0.0074
64.328125000,  0.0219
64.343750000,  0.0233
64.359375000,  0.0108
64.375000000,  0.0050
64.390625000,  0.0123
64.406250000,  0.0211
64.421875000, -0.0069
64.437500000, -0.0015
64.453125000,  0.0500
64.468750000,  0.0923
64.484375000,  0.0319
64.500000000,  0.0358
64.515625000, -0.0021
64.531250000,  0.0048
64.546875000, -0.1676
64.562500000, -0.2394
64.578125000,  1.6680
64.593750000,  0.4180
64.609375000, -0.0965
64.625000000, -0.2215
64.640625000, -0.2520
64.656250000, -0.2461
64.671875000, -0.2168
64.687500000, -0.1790
64.703125000, -0.1515
64.718750000, -0.1431
64.734375000, -0.1266
64.750000000, -0.0944
64.765625000, -0.0678
64.781250000, -0.0464
64.796875000, -0.0678
64.812500000, -0.0570
64.828125000, -0.0521
64.843750000, -0.0301
64.859375000, -0.0390
64.875000000, -0.0429
64.890625000, -0.0278
64.906250000, -0.0282
64.921875000, -0.0042
64.937500000, -0.0139
64.953125000, -0.0094
64.968750000,  0.0131
64.984375000,  0.0015
65.000000000,  0.0148
65.015625000,  0.0023
65.031250000,  0.0044
65.046875000,  0.0172
65.062500000,  0.0370
65.078125000,  0.0095
65.093750000,  0.0185
65.109375000,  0.0115
65.125000000,  0.0248
65.140625000,  0.0372
65.156250000,  0.0267
65.171875000,  0.0162
65.187500000,  0.0452
65.203125000,  0.0395
65.218750000,  0.0326
65.234375000,  0.0032
65.250000000, -0.0106
65.265625000,  0.0800
65.281250000,  0.0932
65.296875000,  0.0566
65.312500000,  0.0184
65.328125000,  0.0319
65.343750000,  0.0221
65.359375000, -0.0011
65.375000000, -0.3009
65.390625000,  0.2571
65.406250000,  1.6925
65.421875000,  0.0961
65.437500000, -0.1206
65.453125000, -0.2570
65.468750000, -0.2253
65.484375000, -0.2005
65.500000000, -0.1943
65.515625000, -0.1756
65.531250000, -0.1338
65.546875000, -0.1177
65.562500000, -0.0854
65.578125000, -0.0724
65.593750000, -0.0727
65.609375000, -0.0393
65.625000000, -0.0426
65.640625000, -0.0816
65.656250000, -0.0784
65.671875000, -0.0487
65.687500000, -0.0330
65.703125000, -0.0344
65.718750000, -0.0503
65.734375000, -0.0498
65.750000000, -0.0474
65.765625000,  0.0059
65.781250000, -0.0117
65.796875000, -0.0115
65.812500000, -0.0231
65.828125000,  0.0123
65.843750000,  0.0056
65.859375000,  0.0085
65.875000000, -0.0103
65.890625000,  0.0164
65.906250000,  0.0294
65.921875000,  0.0289
65.937500000,  0.0122
65.953125000,  0.0016
65.968750000,  0.0202
65.984375000,  0.0284
66.000000000,  0.0213
66.015625000,  0.0151
66.031250000,  0.0187
66.046875000,  0.0210
66.062500000,  0.0047
66.078125000,  0.0890
66.093750000,  0.0874
66.109375000,  0.0544
66.125000000,  0.0241
66.140625000,  0.0321
66.156250000, -0.0132
66.171875000, -0.0313
66.187500000, -0.2473
66.203125000,  0.6940
66.218750000,  1.0343
66.234375000, -0.1485
66.250000000, -0.1778
66.265625000, -0.2065
66.281250000, -0.2003
66.296875000, -0.1874
66.312500000, -0.1581
66.328125000, -0.1418
66.343750000, -0.0953
66.359375000, -0.0905
66.375000000, -0.0786
66.390625000, -0.0352
66.406250000, -0.0150
66.421875000, -0.0158
66.437500000, -0.0415
66.453125000, -0.0467
66.468750000, -0.0275
66.484375000, -0.0422
66.500000000, -0.0699
66.515625000, -0.0897
66.531250000, -0.0863
66.546875000, -0.0629
66.562500000, -0.0595
66.578125000, -0.0523
66.593750000, -0.0324
66.609375000, -0.0127
66.625000000, -0.0163
66.640625000, -0.0111
66.656250000, -0.0395
66.671875000, -0.0063
66.687500000, -0.0007
66.703125000,  0.0148
66.718750000, -0.0014
66.734375000,  0.0019
66.750000000,  0.0125
66.765625000,  0.0252
66.781250000,  0.0282
66.796875000,  0.0229
66.812500000,  0.0281
66.828125000,  0.0441
66.843750000,  0.0295
66.859375000,  0.0064
66.875000000,  0.0083
66.890625000,  0.0907
66.906250000,  0.1142
66.921875000,  0.0542
66.937500000,  0.0209
66.953125000,  0.0361
66.968750000,  0.0302
66.984375000, -0.0583
67.000000000, -0.2508
67.015625000,  1.0620
67.031250000,  0.7161
67.046875000, -0.1069
67.062500000, -0.1979
67.078125000, -0.2230
67.093750000, -0.2109
67.109375000, -0.1636
67.125000000, -0.1289
67.140625000, -0.1226
67.156250000, -0.1252
67.171875000, -0.0915
67.187500000, -0.0585
67.203125000, -0.0422
67.218750000, -0.0523
67.234375000, -0.0560
67.250000000, -0.0608
67.265625000, -0.0572
67.281250000, -0.0498
67.296875000, -0.0468
67.312500000, -0.0416
67.328125000, -0.0128
67.343750000, -0.0283
67.359375000, -0.0433
67.375000000, -0.0364
67.390625000, -0.0211
67.406250000,  0.0055
67.421875000, -0.0014
67.437500000, -0.0088
67.453125000, -0.0124
67.468750000,  0.0097
67.484375000,  0.0148
67.500000000,  0.0142
67.515625000, -0.0173
67.531250000,  0.0179
67.546875000,  0.0173
67.562500000,  0.0212
67.578125000, -0.0002
67.593750000,  0.0144
67.609375000,  0.0292
67.625000000,  0.0306
67.640625000,  0.0111
67.656250000, -0.0001
67.671875000, -0.0089
67.687500000,  0.0345
67.703125000,  0.0826
67.718750000,  0.0812
67.734375000,  0.0062
67.750000000,  0.0358
67.765625000,  0.0322
67.781250000, -0.0024
67.796875000, -0.2304
67.812500000, -0.1734
67.828125000,  1.7999
67.843750000,  0.2892
67.859375000, -0.1025
67.875000000, -0.2415
67.890625000, -0.2422
67.906250000, -0.2040
67.921875000, -0.1942
67.937500000, -0.1685
67.953125000, -0.1714
67.968750000, -0.1268
67.984375000, -0.0829
68.000000000, -0.0845
68.015625000, -0.0850
68.031250000, -0.0622
68.046875000, -0.0777
68.062500000, -0.0922
68.078125000, -0.0955
68.093750000, -0.0727
68.109375000, -0.0445
68.125000000, -0.0317
68.140625000, -0.0448
68.156250000, -0.0575
68.171875000, -0.0355
68.187500000, -0.0226
68.203125000, -0.0026
68.218750000, -0.0046
68.234375000,  0.0007
68.250000000, -0.0069
68.265625000,  0.0128
68.281250000,  0.0115
68.296875000, -0.0015
68.312500000,  0.0094
68.328125000,  0.0308
68.343750000,  0.0209
68.359375000,  0.0239
68.375000000,  0.0154
68.390625000,  0.0303
68.406250000,  0.0433
68.421875000,  0.0344
68.437500000,  0.0201
68.453125000,  0.0302
68.468750000,  0.0281
68.484375000,  0.0198
68.500000000,  0.1194
68.515625000,  0.1057
68.531250000,  0.0607
68.546875000,  0.0514
68.562500000,  0.0309
68.578125000,  0.0124
68.593750000, -0.0656
68.609375000, -0.2604
68.625000000,  1.0717
68.640625000,  0.7864
68.656250000, -0.0738
68.671875000, -0.1918
68.687500000, -0.2206
68.703125000, -0.1938
68.718750000, -0.2117
68.734375000, -0.1746
68.750000000, -0.1414
68.765625000, -0.0990
68.781250000, -0.1057
68.796875000, -0.0885
68.812500000, -0.0629
68.828125000, -0.0372
68.843750000, -0.0575
68.859375000, -0.0721
68.875000000, -0.0856
68.890625000, -0.0617
68.906250000, -0.0303
68.921875000, -0.0420
68.937500000, -0.0436
68.953125000, -0.0511
68.968750000, -0.0295
68.984375000, -0.0252
69.000000000, -0.0174
69.015625000, -0.0171
69.031250000,  0.0210
69.046875000,  0.0246
69.062500000,  0.0155
69.078125000,  0.0069
69.093750000,  0.0169
69.109375000,  0.0211
69.125000000,  0.0080
69.140625000,  0.0270
69.156250000,  0.0207
69.171875000,  0.0287
69.187500000,  0.0405
69.203125000,  0.0367
69.218750000,  0.0179
69.234375000,  0.0194
69.250000000,  0.0134
69.265625000,  0.0306
69.281250000,  0.0732
69.296875000,  0.0811
69.312500000,  0.0303
69.328125000,  0.0504
69.343750000,  0.0293
69.359375000,  0.0038
69.375000000, -0.1583
69.390625000, -0.2435
69.406250000,  1.5804
69.421875000,  0.4221
69.437500000, -0.1248
69.453125000, -0.2278
69.468750000, -0.2246
69.484375000, -0.1920
69.500000000, -0.2168
69.515625000, -0.1871
69.531250000, -0.1606
69.546875000, -0.1365
69.562500000, -0.1040
69.578125000, -0.1117
69.593750000, -0.0801
69.609375000, -0.0537
69.625000000, -0.0694
69.640625000, -0.0892
69.656250000, -0.0790
69.671875000, -0.0615
69.687500000, -0.0432
69.703125000, -0.0571
69.718750000, -0.0639
69.734375000, -0.0653
69.750000000, -0.0239
69.765625000, -0.0257
69.781250000, -0.0123
69.796875000, -0.0113
69.812500000, -0.0069
69.828125000,  0.0002
69.843750000,  0.0109
69.859375000, -0.0138
69.875000000, -0.0194
69.890625000,  0.0067
69.906250000,  0.0057
69.921875000,  0.0099
69.937500000,  0.0146
69.953125000,  0.0182
69.968750000,  0.0363
69.984375000,  0.0357
70.000000000,  0.0211
70.015625000, -0.0065
70.031250000,  0.0171
70.046875000,  0.0948
70.062500000,  0.1089
70.078125000,  0.0434
70.093750000,  0.0297
70.109375000,  0.0295
70.125000000,  0.0249
70.140625000, -0.1059
70.156250000, -0.2607
70.171875000,  1.3094
70.187500000,  0.5242
70.203125000, -0.1143
70.218750000, -0.2014
70.234375000, -0.2074
70.250000000, -0.1845
70.265625000, -0.1510
70.281250000, -0.1512
70.296875000, -0.1363
70.312500000, -0.0855
70.328125000, -0.0531
70.343750000, -0.0353
70.359375000, -0.0465
70.375000000, -0.0223
70.390625000, -0.0084
70.406250000, -0.0272
70.421875000, -0.0350
70.437500000, -0.0392
70.453125000, -0.0365
70.468750000, -0.0632
70.484375000, -0.0605
70.500000000, -0.0851
70.515625000, -0.0553
70.531250000, -0.0152
70.546875000, -0.0123
70.562500000, -0.0325
70.578125000, -0.0206
70.593750000, -0.0120
70.609375000,  0.0038
70.625000000,  0.0098
70.640625000, -0.0092
70.656250000, -0.0191
70.671875000,  0.0069
70.687500000,  0.0242
70.703125000,  0.0064
70.718750000,  0.0086
70.734375000,  0.0060
70.750000000,  0.0226
70.765625000,  0.0235
70.781250000, -0.0272
70.796875000,  0.0304
70.812500000,  0.0874
70.828125000,  0.0762
70.843750000,  0.0240
70.859375000,  0.0290
70.875000000,  0.0087
70.890625000,  0.0276
70.906250000, -0.2633
70.921875000,  0.1891
70.937500000,  1.5243
70.953125000, -0.0392
70.968750000, -0.1407
70.984375000, -0.1609
71.000000000, -0.1557
71.015625000, -0.1327
71.031250000, -0.0848
71.046875000, -0.0772
71.062500000, -0.0573
71.078125000, -0.0542
71.093750000, -0.0149
71.109375000,  0.0122
71.125000000,  0.0391
71.140625000,  0.0306
71.156250000,  0.0195
71.171875000,  0.0287
71.187500000,  0.0274
71.203125000, -0.0236
71.218750000, -0.0910
71.234375000, -0.1158
71.250000000, -0.0714
71.265625000, -0.0885
71.281250000, -0.0833
71.296875000, -0.0908
71.312500000, -0.0466
71.328125000, -0.0280
71.343750000, -0.0174
71.359375000, -0.0328
71.375000000, -0.0101
71.390625000,  0.0025
71.406250000, -0.0105
71.421875000, -0.0193
71.437500000, -0.0139
71.453125000,  0.0038
71.468750000,  0.0078
71.484375000, -0.0010
71.500000000, -0.0179
71.515625000, -0.0241
71.531250000,  0.0466
71.546875000,  0.0897
71.562500000,  0.0429
71.578125000,  0.0202
71.593750000,  0.0277
71.609375000,  0.0238
71.625000000,  0.0238
71.640625000, -0.2441
71.656250000,  0.0181
71.671875000,  1.5615
71.687500000, -0.0601
71.703125000, -0.1870
71.718750000, -0.1812
71.734375000, -0.1513
71.750000000, -0.1166
71.765625000, -0.0808
71.781250000, -0.0809
71.796875000, -0.0593
71.812500000, -0.0269
71.828125000,  0.0120
71.843750000,  0.0322
71.859375000,  0.0274
71.875000000,  0.0571
71.890625000,  0.0513
71.906250000,  0.0752
71.921875000,  0.0204
71.937500000, -0.0481
71.953125000, -0.0755
71.968750000, -0.0774
71.984375000, -0.1148
72.000000000, -0.1037
72.015625000, -0.1029
72.031250000, -0.0677
72.046875000, -0.0451
72.062500000, -0.0642
72.078125000, -0.0393
72.093750000, -0.0259
72.109375000, -0.0115
72.125000000, -0.0197
72.140625000, -0.0119
72.156250000, -0.0254
72.171875000,  0.0128
72.187500000,  0.0051
72.203125000, -0.0039
72.218750000,  0.0037
72.234375000, -0.0086
72.250000000,  0.0171
72.265625000, -0.0018
72.281250000,  0.0247
72.296875000,  0.0756
72.312500000,  0.0943
72.328125000,  0.0359
72.343750000,  0.0256
72.359375000,  0.0142
72.375000000,  0.0236
72.390625000, -0.1971
72.406250000, -0.1389
72.421875000,  1.7276
72.437500000,  0.1499
72.453125000, -0.1126
72.468750000, -0.2057
72.484375000, -0.2142
72.500000000, -0.1976
72.515625000, -0.1572
72.531250000, -0.1381
72.546875000, -0.1280
72.562500000, -0.1188
72.578125000, -0.0926
72.593750000, -0.0764
72.609375000, -0.0411
72.625000000, -0.0453
72.640625000, -0.0514
72.656250000, -0.0728
72.671875000, -0.0317
72.687500000, -0.0332
72.703125000, -0.0497
72.718750000, -0.0380
72.734375000, -0.0368
72.750000000, -0.0141
72.765625000, -0.0158
72.781250000, -0.0233
72.796875000, -0.0243
72.812500000,  0.0088
72.828125000,  0.0143
72.843750000,  0.0155
72.859375000,  0.0011
72.875000000,  0.0201
72.890625000,  0.0332
72.906250000,  0.0250
72.921875000,  0.0083
72.937500000,  0.0244
72.953125000,  0.0275
72.968750000,  0.0117
72.984375000,  0.0134
73.000000000,  0.0182
73.015625000,  0.0273
73.031250000,  0.0474
73.046875000,  0.0274
73.062500000,  0.0228
73.078125000, -0.0301
73.093750000,  0.0412
73.109375000,  0.0827
73.125000000,  0.0717
73.140625000,  0.0073
73.156250000,  0.0140
73.171875000,  0.0093
73.187500000,  0.0083
73.203125000, -0.2608
73.218750000, -0.0920
73.234375000,  1.9398
73.250000000,  0.2732
73.265625000, -0.0655
73.281250000, -0.2834
73.296875000, -0.2813
73.312500000, -0.2336
73.328125000, -0.1830
73.343750000, -0.1929
73.359375000, -0.1786
73.375000000, -0.1450
73.390625000, -0.1125
73.406250000, -0.0883
73.421875000, -0.0757
73.437500000, -0.0844
73.453125000, -0.0620
73.468750000, -0.0985
73.484375000, -0.0677
73.500000000, -0.0626
73.515625000, -0.0155
73.531250000, -0.0536
73.546875000, -0.0350
73.562500000, -0.0168
73.578125000, -0.0351
73.593750000,  0.0299
73.609375000, -0.0304
73.625000000, -0.0032
73.640625000, -0.0025
73.656250000,  0.0106
73.671875000,  0.0297
73.687500000,  0.0249
73.703125000,  0.0314
73.718750000,  0.0297
73.734375000,  0.0599
73.750000000,  0.0427
73.765625000,  0.0426
73.781250000,  0.0495
73.796875000,  0.0600
73.812500000,  0.0295
73.828125000,  0.0480
73.843750000,  0.0461
73.859375000,  0.0354
73.875000000,  0.0414
73.890625000,  0.0337
73.906250000,  0.0263
73.921875000, -0.0059
73.937500000,  0.0870
73.953125000,  0.1077
73.968750000,  0.1037
73.984375000,  0.0198
74.000000000,  0.0217
74.015625000,  0.0254
74.031250000,  0.0163
74.046875000, -0.2971
74.062500000,  0.3477
74.078125000,  1.6270
74.093750000,  0.0646
74.109375000, -0.1385
74.125000000, -0.2653
74.140625000, -0.2836
74.156250000, -0.2361
74.171875000, -0.1990
74.187500000, -0.1545
74.203125000, -0.1621
74.218750000, -0.1201
74.234375000, -0.1184
74.250000000, -0.0611
74.265625000, -0.0750
74.281250000, -0.0117
74.296875000, -0.0922
74.312500000, -0.0691
74.328125000, -0.0279
74.343750000, -0.0837
74.359375000, -0.0267
74.375000000, -0.0836
74.390625000, -0.0469
74.406250000, -0.0612
74.421875000, -0.0555
74.437500000, -0.0587
74.453125000, -0.0178
74.468750000, -0.0028
74.484375000, -0.0407
74.500000000,  0.0181
74.515625000,  0.0447
74.531250000,  0.0480
74.546875000,  0.0101
74.562500000, -0.0118
74.578125000,  0.0134
74.593750000,  0.0513
74.609375000,  0.0211
74.625000000,  0.0317
74.640625000,  0.0437
74.656250000,  0.0297
74.671875000,  0.0548
74.687500000,  0.0282
74.703125000,  0.0047
74.718750000,  0.0320
74.734375000,  0.0002
74.750000000,  0.0882
74.765625000,  0.0099
74.781250000,  0.0024
74.796875000,  0.0229
74.812500000,  0.0198
74.828125000,  0.1253
74.843750000,  0.0313
74.859375000,  0.0567
74.875000000, -0.0191
74.890625000,  0.0538
74.906250000,  0.0455
74.921875000, -0.3280
74.937500000, -0.1461
74.953125000,  1.9344
74.968750000,  0.2877
74.984375000, -0.1042
75.000000000, -0.3202
75.015625000, -0.2277
75.031250000, -0.1474
75.046875000, -0.2225
75.062500000, -0.2252
75.078125000, -0.1603
75.093750000, -0.1812
75.109375000, -0.1569
75.125000000, -0.1092
75.140625000, -0.0823
75.156250000, -0.1226
75.171875000, -0.0611
75.187500000, -0.0551
75.203125000, -0.0409
75.218750000, -0.0798
75.234375000, -0.0300
75.250000000, -0.0929
75.265625000, -0.0699
75.281250000, -0.0682
75.296875000, -0.0681
75.312500000, -0.0272
75.328125000, -0.0873
75.343750000, -0.0213
75.359375000, -0.0305
75.375000000,  0.0088
75.390625000, -0.0132
75.406250000,  0.0271
75.421875000,  0.0167
75.437500000, -0.0115
75.453125000,  0.0309
75.468750000,  0.0239
75.484375000,  0.0933
75.500000000, -0.0174
75.515625000,  0.0248
75.531250000,  0.0582
75.546875000,  0.0405
75.562500000, -0.0018
75.578125000,  0.0219
75.593750000,  0.0288
75.609375000,  0.0883
75.625000000,  0.0091
75.640625000, -0.0191
75.656250000,  0.0425
75.671875000, -0.0310
75.687500000,  0.0464
75.703125000,  0.0791
75.718750000,  0.0805
75.734375000,  0.0468
75.750000000,  0.0961
75.765625000,  0.0084
75.781250000,  0.0092
75.796875000, -0.1516
75.812500000, -0.2102
75.828125000,  1.6064
75.843750000,  0.4293
75.859375000, -0.1444
75.875000000, -0.2129
75.890625000, -0.2180
75.906250000, -0.2286
75.921875000, -0.2072
75.937500000, -0.1721
75.953125000, -0.1319
75.968750000, -0.1131
75.984375000, -0.1141
76.000000000, -0.0818
76.015625000, -0.0566
76.031250000, -0.0475
76.046875000, -0.0274
76.062500000, -0.0810
76.078125000, -0.0684
76.093750000, -0.0349
76.109375000, -0.0540
76.125000000, -0.0757
76.140625000, -0.0462
76.156250000, -0.1079
76.171875000, -0.0460
76.187500000, -0.0264
76.203125000, -0.0532
76.218750000, -0.0272
76.234375000,  0.0121
76.250000000,  0.0060
76.265625000, -0.0020
76.281250000, -0.0098
76.296875000,  0.0039
76.312500000,  0.0232
76.328125000,  0.0484
76.343750000,  0.0001
76.359375000,  0.0023
76.375000000,  0.0196
76.390625000,  0.0248
76.406250000,  0.0466
76.421875000,  0.0138
76.437500000,  0.0249
76.453125000,  0.0452
76.468750000,  0.0472
76.484375000,  0.0309
76.500000000,  0.0074
76.515625000,  0.0229
76.531250000,  0.0361
76.546875000,  0.0042
76.562500000,  0.0568
76.578125000,  0.0696
76.593750000,  0.0494
76.609375000,  0.0362
76.625000000,  0.0193
76.640625000,  0.0149
76.656250000,  0.0039
76.671875000, -0.2572
76.687500000,  0.0815
76.703125000,  1.7316
76.718750000,  0.0773
76.734375000, -0.0953
76.750000000, -0.2181
76.765625000, -0.2143
76.781250000, -0.2359
76.796875000, -0.1360
76.812500000, -0.1342
76.828125000, -0.1424
76.843750000, -0.1087
76.859375000, -0.0779
76.875000000, -0.0557
76.890625000, -0.0033
76.906250000, -0.0226
76.921875000, -0.0114
76.937500000, -0.0304
76.953125000,  0.0070
76.968750000, -0.0181
76.984375000, -0.0594
77.000000000, -0.0702
77.015625000, -0.0610
77.031250000, -0.0662
77.046875000, -0.0348
77.062500000, -0.0606
77.078125000, -0.0232
77.093750000, -0.0354
77.109375000, -0.0007
77.125000000, -0.0210
77.140625000, -0.0490
77.156250000, -0.0077
77.171875000,  0.0077
77.187500000,  0.0036
77.203125000, -0.0306
77.218750000,  0.0012
77.234375000,  0.0052
77.250000000,  0.0015
77.265625000, -0.0125
77.281250000,  0.0156
77.296875000,  0.0080
77.312500000,  0.0276
77.328125000,  0.0347
77.343750000,  0.0211
77.359375000,  0.0592
77.375000000,  0.0095
77.390625000,  0.0184
77.406250000, -0.0069
77.421875000,  0.0886
77.437500000,  0.1176
77.453125000,  0.0505
77.468750000,  0.0258
77.484375000,  0.0076
77.500000000,  0.0067
77.515625000, -0.1110
77.531250000, -0.2155
77.546875000,  1.2649
77.562500000,  0.5281
77.578125000, -0.1065
77.593750000, -0.1926
77.609375000, -0.2286
77.625000000, -0.2047
77.640625000, -0.1917
77.656250000, -0.1543
77.671875000, -0.1359
77.687500000, -0.1292
77.703125000, -0.1104
77.718750000, -0.0682
77.734375000, -0.0363
77.750000000, -0.0472
77.765625000, -0.0544
77.781250000, -0.0640
77.796875000, -0.0552
77.812500000, -0.0430
77.828125000, -0.0696
77.843750000, -0.0696
77.859375000, -0.0832
77.875000000, -0.0486
77.890625000, -0.0608
77.906250000, -0.0315
77.921875000, -0.0485
77.937500000, -0.0208
77.953125000, -0.0090
77.968750000, -0.0022
77.984375000,  0.0013
78.000000000, -0.0205
78.015625000,  0.0156
78.031250000,  0.0001
78.046875000,  0.0052
78.062500000,  0.0068
78.078125000,  0.0023
78.093750000,  0.0425
78.109375000,  0.0034
78.125000000,  0.0296
78.140625000,  0.0021
78.156250000,  0.0469
78.171875000,  0.0403
78.187500000,  0.0462
78.203125000, -0.0110
78.218750000, -0.0250
78.234375000,  0.0328
78.250000000,  0.1034
78.265625000,  0.1028
78.281250000,  0.0319
78.296875000,  0.0413
78.312500000,  0.0310
78.328125000, -0.0024
78.343750000, -0.1654
78.359375000, -0.2712
78.375000000,  1.5321
78.390625000,  0.4343
78.406250000, -0.0983
78.421875000, -0.2210
78.437500000, -0.2372
78.453125000, -0.2073
78.468750000, -0.1745
78.484375000, -0.1847
78.500000000, -0.1374
78.515625000, -0.1169
78.531250000, -0.0954
78.546875000, -0.0777
78.562500000, -0.0490
78.578125000, -0.0371
78.593750000, -0.0530
78.609375000, -0.0408
78.625000000, -0.0428
78.640625000, -0.0431
78.656250000, -0.0391
78.671875000, -0.0679
78.687500000, -0.0659
78.703125000, -0.0501
78.718750000, -0.0739
78.734375000, -0.0243
78.750000000, -0.0245
78.765625000, -0.0251
78.781250000, -0.0024
78.796875000,  0.0038
78.812500000,  0.0225
78.828125000,  0.0157
78.843750000,  0.0040
78.859375000,  0.0042
78.875000000,  0.0105
78.890625000,  0.0430
78.906250000,  0.0015
78.921875000,  0.0153
78.937500000,  0.0175
78.953125000,  0.0193
78.968750000,  0.0367
78.984375000,  0.0254
79.000000000,  0.0201
79.015625000,  0.0485
79.031250000, -0.0010
79.046875000,  0.0525
79.062500000,  0.0754
79.078125000,  0.0898
79.093750000,  0.0242
79.109375000,  0.0242
79.125000000, -0.0062
79.140625000, -0.0032
79.156250000, -0.2941
79.171875000,  0.1037
79.187500000,  1.7322
79.203125000,  0.1240
79.218750000, -0.1072
79.234375000, -0.2437
79.250000000, -0.2471
79.265625000, -0.2265
79.281250000, -0.1904
79.296875000, -0.1710
79.312500000, -0.1313
79.328125000, -0.1162
79.343750000, -0.0835
79.359375000, -0.0660
79.375000000, -0.0326
79.390625000, -0.0237
79.406250000, -0.0459
79.421875000, -0.0472
79.437500000, -0.0271
79.453125000, -0.0261
79.468750000, -0.0417
79.484375000, -0.0620
79.500000000, -0.0561
79.515625000, -0.0448
79.531250000, -0.0359
79.546875000, -0.0360
79.562500000, -0.0192
79.578125000, -0.0177
79.593750000,  0.0179
79.609375000,  0.0104
79.625000000, -0.0002
79.640625000,  0.0045
79.656250000,  0.0115
79.671875000,  0.0225
79.687500000,  0.0181
79.703125000,  0.0141
79.718750000,  0.0255
79.734375000,  0.0360
79.750000000,  0.0434
79.765625000,  0.0229
79.781250000,  0.0126
79.796875000,  0.0347
79.812500000,  0.0505
79.828125000,  0.0066
79.843750000,  0.0107
79.859375000,  0.1001
79.875000000,  0.1096
79.890625000,  0.0738
79.906250000,  0.0240
79.921875000,  0.0149
79.937500000,  0.0064
79.953125000, -0.0974
79.968750000, -0.2530
79.984375000,  1.1540
80.000000000,  0.6101
80.015625000, -0.0875
80.031250000, -0.2101
80.046875000, -0.2322
80.062500000, -0.2143
80.078125000, -0.1795
80.093750000, -0.1523
80.109375000, -0.1495
80.125000000, -0.1256
80.140625000, -0.1077
80.156250000, -0.0693
80.171875000, -0.0415
80.187500000, -0.0559
80.203125000, -0.0602
80.218750000, -0.0500
80.234375000, -0.0403
80.250000000, -0.0444
80.265625000, -0.0568
80.281250000, -0.0687
80.296875000, -0.0526
80.312500000, -0.0486
80.328125000, -0.0577
80.343750000, -0.0545
80.359375000, -0.0368
80.375000000, -0.0254
80.390625000, -0.0148
80.406250000, -0.0251
80.421875000, -0.0265
80.437500000, -0.0166
80.453125000, -0.0032
80.468750000, -0.0082
80.484375000, -0.0131
80.500000000,  0.0049
80.515625000,  0.0200
80.531250000,  0.0245
80.546875000, -0.0047
80.562500000,  0.0022
80.578125000,  0.0189
80.593750000,  0.0349
80.609375000,  0.0126
80.625000000, -0.0212
80.640625000,  0.0239
80.656250000,  0.0981
80.671875000,  0.0745
80.687500000,  0.0248
80.703125000,  0.0164
80.718750000,  0.0181
80.734375000,  0.0272
80.750000000, -0.2518
80.765625000, -0.0179
80.781250000,  1.7698
80.796875000,  0.1554
80.812500000, -0.0920
80.828125000, -0.2116
80.843750000, -0.2195
80.859375000, -0.1906
80.875000000, -0.1377
80.890625000, -0.1306
80.906250000, -0.1286
80.921875000, -0.0850
80.937500000, -0.0524
80.953125000, -0.0246
80.968750000, -0.0213
80.984375000, -0.0171
81.000000000, -0.0087
81.015625000,  0.0161
81.031250000,  0.0026
81.046875000, -0.0112
81.062500000, -0.0474
81.078125000, -0.0647
81.093750000, -0.0675
81.109375000, -0.0645
81.125000000, -0.0726
81.140625000, -0.0487
81.156250000, -0.0423
81.171875000, -0.0221
81.187500000, -0.0208
81.203125000, -0.0246
81.218750000, -0.0046
81.234375000,  0.0144
81.250000000,  0.0105
81.265625000, -0.0067
81.281250000, -0.0041
81.296875000,  0.0337
81.312500000,  0.0270
81.328125000,  0.0286
81.343750000,  0.0131
81.359375000,  0.0276
81.375000000,  0.0059
81.390625000,  0.0309
81.406250000,  0.0661
81.421875000,  0.0813
81.437500000,  0.0459
81.453125000,  0.0472
81.468750000,  0.0275
81.484375000,  0.0151
81.500000000, -0.1859
81.515625000, -0.1498
81.531250000,  1.5307
81.546875000,  0.0848
81.562500000, -0.1847
81.578125000, -0.1661
81.593750000, -0.1312
81.609375000, -0.1273
81.625000000, -0.1029
81.640625000, -0.0884
81.656250000, -0.0610
81.671875000, -0.0252
81.687500000, -0.0213
81.703125000,  0.0090
81.718750000,  0.0358
81.734375000,  0.0698
81.750000000,  0.0741
81.765625000,  0.0652
81.781250000,  0.0493
81.796875000,  0.0114
81.812500000, -0.0618
81.828125000, -0.1121
81.843750000, -0.1405
81.859375000, -0.1204
81.875000000, -0.1096
81.890625000, -0.0923
81.906250000, -0.0930
81.921875000, -0.0824
81.937500000, -0.0370
81.953125000, -0.0363
81.968750000, -0.0307
81.984375000, -0.0396
82.000000000, -0.0321
82.015625000, -0.0241
82.031250000, -0.0043
82.046875000, -0.0358
82.062500000, -0.0306
82.078125000, -0.0134
82.093750000, -0.0480
82.109375000,  0.0426
82.125000000,  0.0577
82.140625000,  0.0367
82.156250000,  0.0083
82.171875000,  0.0241
82.187500000,  0.0086
82.203125000, -0.0054
82.218750000, -0.2662
82.234375000,  0.3423
82.250000000,  1.3196
82.265625000, -0.2131
82.281250000, -0.1607
82.296875000, -0.1543
82.312500000, -0.1042
82.328125000, -0.1134
82.343750000, -0.0993
82.359375000, -0.0608
82.375000000, -0.0353
82.390625000, -0.0133
82.406250000,  0.0013
82.421875000,  0.0221
82.437500000,  0.0505
82.453125000,  0.0743
82.468750000,  0.0734
82.484375000,  0.0752
82.500000000,  0.0448
82.515625000, -0.0082
82.531250000, -0.0749
82.546875000, -0.1116
82.562500000, -0.1060
82.578125000, -0.0741
82.593750000, -0.0762
82.609375000, -0.0589
82.625000000, -0.0570
82.640625000, -0.0393
82.656250000, -0.0203
82.671875000, -0.0085
82.687500000, -0.0199
82.703125000, -0.0223
82.718750000, -0.0101
82.734375000,  0.0009
82.750000000, -0.0008
82.765625000, -0.0080
82.781250000,  0.0054
82.796875000,  0.0059
82.812500000, -0.0251
82.828125000,  0.0324
82.843750000,  0.0662
82.859375000,  0.0695
82.875000000,  0.0242
82.890625000,  0.0201
82.906250000,  0.0050
82.921875000, -0.0000
82.937500000, -0.2878
82.953125000,  0.1153
82.968750000,  1.6866
82.984375000,  0.0350
83.000000000, -0.1279
83.015625000, -0.2109
83.031250000, -0.2041
83.046875000, -0.1824
83.062500000, -0.1519
83.078125000, -0.1321
83.093750000, -0.0993
83.109375000, -0.0891
83.125000000, -0.0719
83.140625000, -0.0541
83.156250000, -0.0303
83.171875000, -0.0135
83.187500000, -0.0256
83.203125000, -0.0321
83.218750000, -0.0115
83.234375000, -0.0125
83.250000000, -0.0253
83.265625000, -0.0571
83.281250000, -0.0366
83.296875000, -0.0154
83.312500000, -0.0161
83.328125000, -0.0159
83.343750000, -0.0048
83.359375000,  0.0050
83.375000000,  0.0078
83.390625000,  0.0129
83.406250000,  0.0085
83.421875000,  0.0033
83.437500000,  0.0291
83.453125000,  0.0190
83.468750000,  0.0199
83.484375000,  0.0153
83.500000000,  0.0253
83.515625000,  0.0331
83.531250000,  0.0218
83.546875000,  0.0082
83.562500000, -0.0161
83.578125000,  0.0585
83.593750000,  0.0804
83.609375000,  0.0796
83.625000000,  0.0117
83.640625000,  0.0202
83.656250000,  0.0178
83.671875000,  0.0183
83.687500000, -0.2633
83.703125000, -0.0905
83.718750000,  2.0205
83.734375000,  0.2626
83.750000000, -0.0798
83.765625000, -0.3017
83.781250000, -0.2754
83.796875000, -0.2492
83.812500000, -0.2233
83.828125000, -0.2078
83.843750000, -0.1857
83.859375000, -0.1568
83.875000000, -0.1294
83.890625000, -0.1202
83.906250000, -0.0911
83.921875000, -0.0819
83.937500000, -0.0634
83.953125000, -0.0602
83.968750000, -0.0546
83.984375000, -0.0413
84.000000000, -0.0341
84.015625000, -0.0218
84.031250000, -0.0375
84.046875000, -0.0366
84.062500000, -0.0353
84.078125000, -0.0208
84.093750000, -0.0096
84.109375000, -0.0085
84.125000000,  0.0010
84.140625000,  0.0160
84.156250000,  0.0286
84.171875000,  0.0352
84.187500000,  0.0211
84.203125000,  0.0272
84.218750000,  0.0406
84.234375000,  0.0356
84.250000000,  0.0446
84.265625000,  0.0270
84.281250000,  0.0336
84.296875000,  0.0471
84.312500000,  0.0411
84.328125000,  0.0360
84.343750000,  0.0427
84.359375000,  0.0382
84.375000000,  0.0416
84.390625000, -0.0021
84.406250000,  0.0398
84.421875000,  0.0751
84.437500000,  0.0937
84.453125000,  0.0319
84.468750000,  0.0266
84.484375000,  0.0058
84.500000000,  0.0195
84.515625000, -0.1892
84.531250000, -0.1743
84.546875000,  1.8410
84.562500000,  0.3530
84.578125000, -0.0646
84.593750000, -0.2557
84.609375000, -0.2724
84.625000000, -0.2505
84.640625000, -0.2127
84.656250000, -0.1817
84.671875000, -0.1481
84.687500000, -0.1592
84.703125000, -0.1270
84.718750000, -0.0897
84.734375000, -0.0556
84.750000000, -0.0507
84.765625000, -0.0495
84.781250000, -0.0463
84.796875000, -0.0233
84.812500000, -0.0283
84.828125000, -0.0586
84.843750000, -0.0713
84.859375000, -0.0680
84.875000000, -0.0633
84.890625000, -0.0529
84.906250000, -0.0649
84.921875000, -0.0442
84.937500000, -0.0185
84.953125000, -0.0256
84.968750000, -0.0250
84.984375000, -0.0183
85.000000000,  0.0076
85.015625000,  0.0254
85.031250000,  0.0253
85.046875000,  0.0003
85.062500000,  0.0149
85.078125000,  0.0228
85.093750000,  0.0273
85.109375000,  0.0186
85.125000000,  0.0169
85.140625000,  0.0271
85.156250000,  0.0363
85.171875000,  0.0372
85.187500000,  0.0251
85.203125000,  0.0294
85.218750000,  0.0404
85.234375000,  0.0465
85.250000000,  0.0394
85.265625000,  0.0276
85.281250000,  0.0298
85.296875000,  0.0013
85.312500000,  0.0925
85.328125000,  0.0922
85.343750000,  0.0511
85.359375000,  0.0502
85.375000000,  0.0423
85.390625000,  0.0209
85.406250000, -0.0085
85.421875000, -0.2897
85.437500000,  0.3969
85.453125000,  1.6051
85.468750000,  0.0515
85.484375000, -0.1537
85.500000000, -0.2578
85.515625000, -0.2310
85.531250000, -0.2175
85.546875000, -0.1974
85.562500000, -0.1864
85.578125000, -0.1445
85.593750000, -0.1195
85.609375000, -0.1049
85.625000000, -0.0798
85.640625000, -0.0450
85.656250000, -0.0293
85.671875000, -0.0184
